CL4
180 0.2
Index
n

0 501 100 0 0 0 0 1 0 0 0 0 0 500 1 1
Zeit
t
s
0 100 50 0 1 0 0 1 0 0 0 0 0 0 1 1
Frequenz
f
Hz
0 2.5 1 0 3 0 0 1 500 0 0 0 0 0 1 1
6 0
0 1 0 1
1 0 0 1 1 0 5 0 0 0 0 0 0 0 0 2500 0 0 0 1 1139 116 297 140 0.5 0 0 1 0
Spannung
U_A1
V
-0.3 0.3 0.1 0 4 0 0 0 0 1 1 0 0 0 1 1
524031 -2.668120157 334.0718563 1
1 1 0 1 1 1 0 0 0 0 0 0 0 0 0 2500 0 0 0 1 989 208 297 140 0.5 0 0 1 2
Weg
s_B1
cm
0 150 50 0 1 0 0 0 0 1 1 0 0 65.38922156 1 1
10 1 -1 0
20 0 0 0 1 0 0 0 0 0 10 0 1 0 0 2500 0 0 0 0 50 50 297 140 0.5 0 0 1 0
neue Größe
f_1

0 100 50 0 1 0 0 1 0 0 0 0 0 0 1 1
10 1 -1 n*(-5)+63.6
20 1 0 0 1 0 0 0 0 0 10 0 1 0 0 2500 0 0 0 0 371 309 297 140 0.5 0 0 1 0
d_kalib
d_kalib

0 100 50 0 1 0 0 1 0 0 0 0 0 -2436.4 1 1
10 1 -1 -80+(n-1)*10
20 2 0 0 1 0 0 0 0 0 1 0 1 0 0 2500 0 0 0 0 454 573 297 140 0.5 0 0 1 0
gamma
gamma
Grad
-80 80 50 0 4 0 0 1 0 0 0 0 0 4910 1 1
10 1 -1 sB1
20 3 0 0 1 0 0 0 0 0 10 0 1 0 0 2500 0 0 0 1 415 132 297 140 0.5 0 0 1 0
alpha_tunnel
alpha
°
-75 75 50 0 1 0 0 1 0 0 0 0 0 65.38922156 1 1
8 500
1	0	0.0003	-81.52694611	0	58.6	-80	-81.52694611	
2	0.201	0.0003	-81.52694611	0	53.6	-70	-81.52694611	
3	0.401	0.0003	-81.52694611	0	48.6	-60	-81.52694611	
4	0.601	0.00045	-81.52694611	0	43.6	-50	-81.52694611	
5	0.801	0.00015	-81.52694611	0	38.6	-40	-81.52694611	
6	1.001	0.0003	-81.52694611	0	33.6	-30	-81.52694611	
7	1.201	0.00015	-81.52694611	0	28.6	-20	-81.52694611	
8	1.401	0.00015	-81.52694611	0	23.6	-10	-81.52694611	
9	1.602	0.00015	-81.31736527	0	18.6	0	-81.31736527	
10	1.801	0.0003	-81.31736527	0	13.6	10	-81.31736527	
11	2.002	0.00045	-81.10778443	0	8.6	20	-81.10778443	
12	2.21	0.0006	-80.68862275	0	3.6	30	-80.68862275	
13	2.402	0.0009	-80.26946108	0	-1.4	40	-80.26946108	
14	2.61	0.0009	-79.8502994	0	-6.4	50	-79.8502994	
15	2.818	0.00075	-79.64071856	0	-11.4	60	-79.64071856	
16	3.01	0.0009	-79.22155689	0	-16.4	70	-79.22155689	
17	3.218	0.00105	-79.01197605	0	-21.4	80	-79.01197605	
18	3.426	0.0009	-78.80239521	0	-26.4	90	-78.80239521	
19	3.617	0.0012	-78.59281437	0	-31.4	100	-78.59281437	
20	3.825	0.0012	-78.38323353	0	-36.4	110	-78.38323353	
21	4.033	0.0015	-78.17365269	0	-41.4	120	-78.17365269	
22	4.201	0.0015	-77.75449102	0	-46.4	130	-77.75449102	
23	4.401	0.00165	-77.54491018	0	-51.4	140	-77.54491018	
24	4.601	0.0018	-77.33532934	0	-56.4	150	-77.33532934	
25	4.801	0.0021	-77.1257485	0	-61.4	160	-77.1257485	
26	5.001	0.00195	-76.91616766	0	-66.4	170	-76.91616766	
27	5.201	0.0021	-76.70658683	0	-71.4	180	-76.70658683	
28	5.401	0.00225	-76.49700599	0	-76.4	190	-76.49700599	
29	5.601	0.00255	-76.28742515	0	-81.4	200	-76.28742515	
30	5.801	0.0027	-76.07784431	0	-86.4	210	-76.07784431	
31	6.001	0.003	-75.65868263	0	-91.4	220	-75.65868263	
32	6.201	0.00345	-75.4491018	0	-96.4	230	-75.4491018	
33	6.401	0.0039	-75.23952096	0	-101.4	240	-75.23952096	
34	6.609	0.00435	-75.02994012	0	-106.4	250	-75.02994012	
35	6.801	0.0048	-74.82035928	0	-111.4	260	-74.82035928	
36	7.009	0.00525	-74.61077844	0	-116.4	270	-74.61077844	
37	7.216	0.00555	-74.4011976	0	-121.4	280	-74.4011976	
38	7.409	0.0063	-74.19161677	0	-126.4	290	-74.19161677	
39	7.617	0.0072	-73.98203593	0	-131.4	300	-73.98203593	
40	7.824	0.00795	-73.56287425	0	-136.4	310	-73.56287425	
41	8.016	0.0084	-73.35329341	0	-141.4	320	-73.35329341	
42	8.224	0.009	-73.14371257	0	-146.4	330	-73.14371257	
43	8.432	0.00945	-72.93413174	0	-151.4	340	-72.93413174	
44	8.601	0.0099	-72.7245509	0	-156.4	350	-72.7245509	
45	8.801	0.01095	-72.51497006	0	-161.4	360	-72.51497006	
46	9.001	0.0114	-72.30538922	0	-166.4	370	-72.30538922	
47	9.201	0.01215	-72.09580838	0	-171.4	380	-72.09580838	
48	9.401	0.0129	-71.67664671	0	-176.4	390	-71.67664671	
49	9.601	0.01335	-71.46706587	0	-181.4	400	-71.46706587	
50	9.801	0.01395	-71.46706587	0	-186.4	410	-71.46706587	
51	10.001	0.01425	-71.04790419	0	-191.4	420	-71.04790419	
52	10.201	0.015	-70.83832335	0	-196.4	430	-70.83832335	
53	10.401	0.01545	-70.62874251	0	-201.4	440	-70.62874251	
54	10.601	0.01605	-70.41916168	0	-206.4	450	-70.41916168	
55	10.801	0.0165	-70.20958084	0	-211.4	460	-70.20958084	
56	11.008	0.0171	-69.79041916	0	-216.4	470	-69.79041916	
57	11.201	0.018	-69.58083832	0	-221.4	480	-69.58083832	
58	11.407	0.0186	-69.37125749	0	-226.4	490	-69.37125749	
59	11.615	0.0192	-68.95209581	0	-231.4	500	-68.95209581	
60	11.807	0.0198	-68.74251497	0	-236.4	510	-68.74251497	
61	12.015	0.02055	-68.53293413	0	-241.4	520	-68.53293413	
62	12.223	0.02145	-68.32335329	0	-246.4	530	-68.32335329	
63	12.415	0.02205	-68.11377246	0	-251.4	540	-68.11377246	
64	12.623	0.0231	-67.90419162	0	-256.4	550	-67.90419162	
65	12.831	0.024	-67.69461078	0	-261.4	560	-67.69461078	
66	13.023	0.0246	-67.2754491	0	-266.4	570	-67.2754491	
67	13.201	0.02535	-67.06586826	0	-271.4	580	-67.06586826	
68	13.401	0.0261	-66.85628743	0	-276.4	590	-66.85628743	
69	13.601	0.02685	-66.43712575	0	-281.4	600	-66.43712575	
70	13.801	0.02745	-66.22754491	0	-286.4	610	-66.22754491	
71	14.001	0.0279	-66.01796407	0	-291.4	620	-66.01796407	
72	14.201	0.02835	-65.80838323	0	-296.4	630	-65.80838323	
73	14.401	0.0285	-65.5988024	0	-301.4	640	-65.5988024	
74	14.601	0.02865	-65.38922156	0	-306.4	650	-65.38922156	
75	14.801	0.02865	-65.17964072	0	-311.4	660	-65.17964072	
76	15.001	0.02865	-64.97005988	0	-316.4	670	-64.97005988	
77	15.201	0.0285	-64.5508982	0	-321.4	680	-64.5508982	
78	15.407	0.02805	-64.34131737	0	-326.4	690	-64.34131737	
79	15.601	0.02745	-64.13173653	0	-331.4	700	-64.13173653	
80	15.806	0.02685	-64.13173653	0	-336.4	710	-64.13173653	
81	16.014	0.0264	-63.92215569	0	-341.4	720	-63.92215569	
82	16.206	0.02595	-63.50299401	0	-346.4	730	-63.50299401	
83	16.415	0.02535	-63.29341317	0	-351.4	740	-63.29341317	
84	16.622	0.02475	-63.08383234	0	-356.4	750	-63.08383234	
85	16.814	0.024	-62.8742515	0	-361.4	760	-62.8742515	
86	17.022	0.02325	-62.66467066	0	-366.4	770	-62.66467066	
87	17.231	0.02265	-62.45508982	0	-371.4	780	-62.45508982	
88	17.422	0.02205	-62.24550898	0	-376.4	790	-62.24550898	
89	17.601	0.0213	-61.82634731	0	-381.4	800	-61.82634731	
90	17.801	0.02055	-61.61676647	0	-386.4	810	-61.61676647	
91	18.001	0.0198	-61.40718563	0	-391.4	820	-61.40718563	
92	18.201	0.0195	-61.19760479	0	-396.4	830	-61.19760479	
93	18.401	0.01905	-60.98802395	0	-401.4	840	-60.98802395	
94	18.601	0.0183	-60.77844311	0	-406.4	850	-60.77844311	
95	18.801	0.0183	-60.56886228	0	-411.4	860	-60.56886228	
96	19.001	0.0177	-60.35928144	0	-416.4	870	-60.35928144	
97	19.201	0.0171	-60.1497006	0	-421.4	880	-60.1497006	
98	19.401	0.01665	-59.94011976	0	-426.4	890	-59.94011976	
99	19.601	0.0159	-59.73053892	0	-431.4	900	-59.73053892	
100	19.805	0.015	-59.52095808	0	-436.4	910	-59.52095808	
101	20.001	0.0144	-59.52095808	0	-441.4	920	-59.52095808	
102	20.205	0.01365	-58.89221557	0	-446.4	930	-58.89221557	
103	20.413	0.0129	-58.68263473	0	-451.4	940	-58.68263473	
104	20.605	0.0123	-58.47305389	0	-456.4	950	-58.47305389	
105	20.813	0.0117	-58.26347305	0	-461.4	960	-58.26347305	
106	21.021	0.01095	-58.05389222	0	-466.4	970	-58.05389222	
107	21.213	0.0102	-57.84431138	0	-471.4	980	-57.84431138	
108	21.421	0.00945	-57.4251497	0	-476.4	990	-57.4251497	
109	21.629	0.0084	-57.4251497	0	-481.4	1000	-57.4251497	
110	21.821	0.0084	-57.00598802	0	-486.4	1010	-57.00598802	
111	22.001	0.0078	-57.00598802	0	-491.4	1020	-57.00598802	
112	22.201	0.00735	-56.79640719	0	-496.4	1030	-56.79640719	
113	22.401	0.0069	-56.58682635	0	-501.4	1040	-56.58682635	
114	22.601	0.00615	-56.37724551	0	-506.4	1050	-56.37724551	
115	22.801	0.0057	-56.16766467	0	-511.4	1060	-56.16766467	
116	23.001	0.0051	-55.95808383	0	-516.4	1070	-55.95808383	
117	23.201	0.00465	-55.74850299	0	-521.4	1080	-55.74850299	
118	23.401	0.0042	-55.32934132	0	-526.4	1090	-55.32934132	
119	23.601	0.0039	-55.11976048	0	-531.4	1100	-55.11976048	
120	23.801	0.0036	-54.91017964	0	-536.4	1110	-54.91017964	
121	24.001	0.00315	-54.7005988	0	-541.4	1120	-54.7005988	
122	24.204	0.003	-54.49101796	0	-546.4	1130	-54.49101796	
123	24.401	0.0024	-54.28143713	0	-551.4	1140	-54.28143713	
124	24.604	0.00225	-54.07185629	0	-556.4	1150	-54.07185629	
125	24.812	0.0021	-53.65269461	0	-561.4	1160	-53.65269461	
126	25.004	0.0021	-53.44311377	0	-566.4	1170	-53.44311377	
127	25.212	0.0018	-53.23353293	0	-571.4	1180	-53.23353293	
128	25.42	0.0015	-53.0239521	0	-576.4	1190	-53.0239521	
129	25.612	0.00135	-52.81437126	0	-581.4	1200	-52.81437126	
130	25.82	0.0012	-52.60479042	0	-586.4	1210	-52.60479042	
131	26.028	0.00105	-52.39520958	0	-591.4	1220	-52.39520958	
132	26.22	0.00105	-51.9760479	0	-596.4	1230	-51.9760479	
133	26.428	0.00105	-51.76646707	0	-601.4	1240	-51.76646707	
134	26.601	0.0009	-51.55688623	0	-606.4	1250	-51.55688623	
135	26.801	0.0009	-51.34730539	0	-611.4	1260	-51.34730539	
136	27.001	0.00075	-51.13772455	0	-616.4	1270	-51.13772455	
137	27.201	0.0006	-50.71856287	0	-621.4	1280	-50.71856287	
138	27.401	0.00045	-50.50898204	0	-626.4	1290	-50.50898204	
139	27.601	0.00045	-50.2994012	0	-631.4	1300	-50.2994012	
140	27.801	0.0003	-50.08982036	0	-636.4	1310	-50.08982036	
141	28.001	0.0003	-49.88023952	0	-641.4	1320	-49.88023952	
142	28.201	0.0003	-49.67065868	0	-646.4	1330	-49.67065868	
143	28.401	0.00015	-49.46107784	0	-651.4	1340	-49.46107784	
144	28.603	0.00015	-49.25149701	0	-656.4	1350	-49.25149701	
145	28.801	0.00015	-49.04191617	0	-661.4	1360	-49.04191617	
146	29.003	0	-48.62275449	0	-666.4	1370	-48.62275449	
147	29.211	0	-48.41317365	0	-671.4	1380	-48.41317365	
148	29.403	0	-48.41317365	0	-676.4	1390	-48.41317365	
149	29.611	0	-48.20359281	0	-681.4	1400	-48.20359281	
150	29.819	0	-47.99401198	0	-686.4	1410	-47.99401198	
151	30.011	0	-47.5748503	0	-691.4	1420	-47.5748503	
152	30.219	0	-47.5748503	0	-696.4	1430	-47.5748503	
153	30.427	0	-47.36526946	0	-701.4	1440	-47.36526946	
154	30.619	0	-47.15568862	0	-706.4	1450	-47.15568862	
155	30.827	0	-46.94610778	0	-711.4	1460	-46.94610778	
156	31.001	0	-46.73652695	0	-716.4	1470	-46.73652695	
157	31.201	0	-46.52694611	0	-721.4	1480	-46.52694611	
158	31.401	0	-46.10778443	0	-726.4	1490	-46.10778443	
159	31.601	0	-45.89820359	0	-731.4	1500	-45.89820359	
160	31.801	0	-45.68862275	0	-736.4	1510	-45.68862275	
161	32.001	0	-45.47904192	0	-741.4	1520	-45.47904192	
162	32.201	0	-45.26946108	0	-746.4	1530	-45.26946108	
163	32.401	0	-45.05988024	0	-751.4	1540	-45.05988024	
164	32.601	0	-44.8502994	0	-756.4	1550	-44.8502994	
165	32.801	0	-44.64071856	0	-761.4	1560	-44.64071856	
166	33.002	0	-44.43113772	0	-766.4	1570	-44.43113772	
167	33.201	0	-44.22155689	0	-771.4	1580	-44.22155689	
168	33.402	0	-44.01197605	0	-776.4	1590	-44.01197605	
169	33.61	0	-43.80239521	0	-781.4	1600	-43.80239521	
170	33.802	0	-43.38323353	0	-786.4	1610	-43.38323353	
171	34.01	0	-43.17365269	0	-791.4	1620	-43.17365269	
172	34.218	0	-42.96407186	0	-796.4	1630	-42.96407186	
173	34.41	0	-42.75449102	0	-801.4	1640	-42.75449102	
174	34.618	0	-42.54491018	0	-806.4	1650	-42.54491018	
175	34.826	0	-42.33532934	0	-811.4	1660	-42.33532934	
176	35.017	0	-42.1257485	0	-816.4	1670	-42.1257485	
177	35.225	0	-41.70658683	0	-821.4	1680	-41.70658683	
178	35.401	0	-41.49700599	0	-826.4	1690	-41.49700599	
179	35.601	0	-41.49700599	0	-831.4	1700	-41.49700599	
180	35.801	0	-41.28742515	0	-836.4	1710	-41.28742515	
181	36.001	0	-41.07784431	0	-841.4	1720	-41.07784431	
182	36.201	0	-40.65868263	0	-846.4	1730	-40.65868263	
183	36.401	0	-40.65868263	0	-851.4	1740	-40.65868263	
184	36.601	0	-40.4491018	0	-856.4	1750	-40.4491018	
185	36.801	0	-40.23952096	0	-861.4	1760	-40.23952096	
186	37.001	0	-40.02994012	0	-866.4	1770	-40.02994012	
187	37.201	0	-39.61077844	0	-871.4	1780	-39.61077844	
188	37.401	0	-39.4011976	0	-876.4	1790	-39.4011976	
189	37.601	0.00015	-39.19161677	0	-881.4	1800	-39.19161677	
190	37.801	0	-38.98203593	0	-886.4	1810	-38.98203593	
191	38.001	0.00015	-38.56287425	0	-891.4	1820	-38.56287425	
192	38.201	0.00015	-38.35329341	0	-896.4	1830	-38.35329341	
193	38.401	0.00015	-38.14371257	0	-901.4	1840	-38.14371257	
194	38.601	0.00015	-37.93413174	0	-906.4	1850	-37.93413174	
195	38.801	0.0003	-37.7245509	0	-911.4	1860	-37.7245509	
196	39.001	0.0003	-37.51497006	0	-916.4	1870	-37.51497006	
197	39.208	0.00045	-37.09580838	0	-921.4	1880	-37.09580838	
198	39.401	0.00045	-36.88622754	0	-926.4	1890	-36.88622754	
199	39.608	0.00045	-36.67664671	0	-931.4	1900	-36.67664671	
200	39.816	0.00045	-36.46706587	0	-936.4	1910	-36.46706587	
201	40.008	0.0006	-36.25748503	0	-941.4	1920	-36.25748503	
202	40.216	0.0006	-35.83832335	0	-946.4	1930	-35.83832335	
203	40.424	0.0006	-35.62874251	0	-951.4	1940	-35.62874251	
204	40.632	0.0006	-35.41916168	0	-956.4	1950	-35.41916168	
205	40.824	0.0006	-35.41916168	0	-961.4	1960	-35.41916168	
206	41.001	0.0006	-35	0	-966.4	1970	-35	
207	41.201	0.0006	-34.79041916	0	-971.4	1980	-34.79041916	
208	41.401	0.0006	-34.58083832	0	-976.4	1990	-34.58083832	
209	41.601	0.0006	-34.37125749	0	-981.4	2000	-34.37125749	
210	41.801	0.00045	-34.16167665	0	-986.4	2010	-34.16167665	
211	42.001	0.00045	-33.95209581	0	-991.4	2020	-33.95209581	
212	42.201	0.0006	-33.74251497	0	-996.4	2030	-33.74251497	
213	42.401	0.0006	-33.74251497	0	-1001.4	2040	-33.74251497	
214	42.601	0.00045	-33.32335329	0	-1006.4	2050	-33.32335329	
215	42.801	0.00045	-33.32335329	0	-1011.4	2060	-33.32335329	
216	43.001	0.00045	-32.90419162	0	-1016.4	2070	-32.90419162	
217	43.201	0.0003	-32.90419162	0	-1021.4	2080	-32.90419162	
218	43.401	0.00045	-32.69461078	0	-1026.4	2090	-32.69461078	
219	43.601	0.0003	-32.48502994	0	-1031.4	2100	-32.48502994	
220	43.801	0.0003	-32.2754491	0	-1036.4	2110	-32.2754491	
221	44.001	0.0003	-32.06586826	0	-1041.4	2120	-32.06586826	
222	44.201	0.0003	-31.85628743	0	-1046.4	2130	-31.85628743	
223	44.407	0.00015	-31.64670659	0	-1051.4	2140	-31.64670659	
224	44.601	0.00015	-31.43712575	0	-1056.4	2150	-31.43712575	
225	44.807	0.00015	-31.22754491	0	-1061.4	2160	-31.22754491	
226	45.015	0.00015	-31.22754491	0	-1066.4	2170	-31.22754491	
227	45.207	0.00015	-31.01796407	0	-1071.4	2180	-31.01796407	
228	45.415	0.00015	-30.5988024	0	-1076.4	2190	-30.5988024	
229	45.623	0.00015	-30.17964072	0	-1081.4	2200	-30.17964072	
230	45.815	0.00015	-30.17964072	0	-1086.4	2210	-30.17964072	
231	46.023	0.00015	-29.97005988	0	-1091.4	2220	-29.97005988	
232	46.231	0.00015	-29.5508982	0	-1096.4	2230	-29.5508982	
233	46.423	0	-29.5508982	0	-1101.4	2240	-29.5508982	
234	46.601	0.00015	-29.34131737	0	-1106.4	2250	-29.34131737	
235	46.801	0	-29.13173653	0	-1111.4	2260	-29.13173653	
236	47.001	0	-28.92215569	0	-1116.4	2270	-28.92215569	
237	47.201	0	-28.71257485	0	-1121.4	2280	-28.71257485	
238	47.401	0	-28.50299401	0	-1126.4	2290	-28.50299401	
239	47.601	0	-28.29341317	0	-1131.4	2300	-28.29341317	
240	47.801	0	-28.08383234	0	-1136.4	2310	-28.08383234	
241	48.001	0	-27.8742515	0	-1141.4	2320	-27.8742515	
242	48.201	0	-27.66467066	0	-1146.4	2330	-27.66467066	
243	48.401	0	-27.24550898	0	-1151.4	2340	-27.24550898	
244	48.601	0	-27.03592814	0	-1156.4	2350	-27.03592814	
245	48.806	0	-26.82634731	0	-1161.4	2360	-26.82634731	
246	49.001	0	-26.61676647	0	-1166.4	2370	-26.61676647	
247	49.206	0	-26.40718563	0	-1171.4	2380	-26.40718563	
248	49.414	0	-25.98802395	0	-1176.4	2390	-25.98802395	
249	49.606	0	-25.98802395	0	-1181.4	2400	-25.98802395	
250	49.814	0	-25.56886228	0	-1186.4	2410	-25.56886228	
251	50.022	0	-25.35928144	0	-1191.4	2420	-25.35928144	
252	50.214	-0.00015	-25.1497006	0	-1196.4	2430	-25.1497006	
253	50.422	-0.00015	-24.94011976	0	-1201.4	2440	-24.94011976	
254	50.63	0	-24.73053892	0	-1206.4	2450	-24.73053892	
255	50.821	0	-24.52095808	0	-1211.4	2460	-24.52095808	
256	51.001	-0.00015	-24.31137725	0	-1216.4	2470	-24.31137725	
257	51.201	0	-23.89221557	0	-1221.4	2480	-23.89221557	
258	51.401	-0.00015	-23.68263473	0	-1226.4	2490	-23.68263473	
259	51.601	0	-23.26347305	0	-1231.4	2500	-23.26347305	
260	51.801	-0.00015	-23.05389222	0	-1236.4	2510	-23.05389222	
261	52.001	0	-22.84431138	0	-1241.4	2520	-22.84431138	
262	52.201	0	-22.63473054	0	-1246.4	2530	-22.63473054	
263	52.401	0	-22.4251497	0	-1251.4	2540	-22.4251497	
264	52.601	0	-22.21556886	0	-1256.4	2550	-22.21556886	
265	52.801	0	-21.79640719	0	-1261.4	2560	-21.79640719	
266	53.001	0	-21.79640719	0	-1266.4	2570	-21.79640719	
267	53.205	0	-21.37724551	0	-1271.4	2580	-21.37724551	
268	53.401	0	-21.16766467	0	-1276.4	2590	-21.16766467	
269	53.605	0	-20.95808383	0	-1281.4	2600	-20.95808383	
270	53.813	0	-20.74850299	0	-1286.4	2610	-20.74850299	
271	54.005	0	-20.32934132	0	-1291.4	2620	-20.32934132	
272	54.213	0	-20.11976048	0	-1296.4	2630	-20.11976048	
273	54.421	0	-19.91017964	0	-1301.4	2640	-19.91017964	
274	54.613	0	-19.7005988	0	-1306.4	2650	-19.7005988	
275	54.821	0	-19.49101796	0	-1311.4	2660	-19.49101796	
276	55.028	0	-19.28143713	0	-1316.4	2670	-19.28143713	
277	55.22	-0.00015	-19.07185629	0	-1321.4	2680	-19.07185629	
278	55.428	0	-18.65269461	0	-1326.4	2690	-18.65269461	
279	55.601	-0.00015	-18.44311377	0	-1331.4	2700	-18.44311377	
280	55.801	0	-18.44311377	0	-1336.4	2710	-18.44311377	
281	56.001	-0.00015	-18.0239521	0	-1341.4	2720	-18.0239521	
282	56.201	0	-17.81437126	0	-1346.4	2730	-17.81437126	
283	56.401	0	-17.60479042	0	-1351.4	2740	-17.60479042	
284	56.601	0	-17.39520958	0	-1356.4	2750	-17.39520958	
285	56.801	0	-17.18562874	0	-1361.4	2760	-17.18562874	
286	57.001	0	-16.9760479	0	-1366.4	2770	-16.9760479	
287	57.201	0	-16.76646707	0	-1371.4	2780	-16.76646707	
288	57.401	0	-16.55688623	0	-1376.4	2790	-16.55688623	
289	57.604	0	-16.34730539	0	-1381.4	2800	-16.34730539	
290	57.801	0	-16.13772455	0	-1386.4	2810	-16.13772455	
291	58.004	0	-15.92814371	0	-1391.4	2820	-15.92814371	
292	58.212	0	-15.71856287	0	-1396.4	2830	-15.71856287	
293	58.404	0	-15.50898204	0	-1401.4	2840	-15.50898204	
294	58.611	0	-15.2994012	0	-1406.4	2850	-15.2994012	
295	58.82	0	-15.08982036	0	-1411.4	2860	-15.08982036	
296	59.011	0	-14.88023952	0	-1416.4	2870	-14.88023952	
297	59.219	0	-14.67065868	0	-1421.4	2880	-14.67065868	
298	59.427	0	-14.46107784	0	-1426.4	2890	-14.46107784	
299	59.619	0	-14.25149701	0	-1431.4	2900	-14.25149701	
300	59.827	0	-14.04191617	0	-1436.4	2910	-14.04191617	
301	60.001	0	-13.83233533	0	-1441.4	2920	-13.83233533	
302	60.201	0	-13.62275449	0	-1446.4	2930	-13.62275449	
303	60.401	0	-13.41317365	0	-1451.4	2940	-13.41317365	
304	60.601	0	-13.20359281	0	-1456.4	2950	-13.20359281	
305	60.801	0	-12.99401198	0	-1461.4	2960	-12.99401198	
306	61.001	0	-12.78443114	0	-1466.4	2970	-12.78443114	
307	61.201	0	-12.36526946	0	-1471.4	2980	-12.36526946	
308	61.401	0.00015	-12.15568862	0	-1476.4	2990	-12.15568862	
309	61.601	0.0003	-11.94610778	0	-1481.4	3000	-11.94610778	
310	61.801	0.00045	-11.73652695	0	-1486.4	3010	-11.73652695	
311	62.001	0.0006	-11.52694611	0	-1491.4	3020	-11.52694611	
312	62.201	0.00075	-11.10778443	0	-1496.4	3030	-11.10778443	
313	62.401	0.0012	-10.89820359	0	-1501.4	3040	-10.89820359	
314	62.601	0.0012	-10.68862275	0	-1506.4	3050	-10.68862275	
315	62.801	0.00165	-10.26946108	0	-1511.4	3060	-10.26946108	
316	63.001	0.00195	-10.05988024	0	-1516.4	3070	-10.05988024	
317	63.202	0.00225	-9.850299401	0	-1521.4	3080	-9.850299401	
318	63.401	0.0024	-9.640718563	0	-1526.4	3090	-9.640718563	
319	63.602	0.0027	-9.221556886	0	-1531.4	3100	-9.221556886	
320	63.81	0.00285	-9.011976048	0	-1536.4	3110	-9.011976048	
321	64.003	0.00285	-8.80239521	0	-1541.4	3120	-8.80239521	
322	64.21	0.00285	-8.592814371	0	-1546.4	3130	-8.592814371	
323	64.418	0.003	-8.383233533	0	-1551.4	3140	-8.383233533	
324	64.61	0.003	-7.964071856	0	-1556.4	3150	-7.964071856	
325	64.818	0.0033	-7.754491018	0	-1561.4	3160	-7.754491018	
326	65.026	0.0033	-7.54491018	0	-1566.4	3170	-7.54491018	
327	65.218	0.00345	-7.335329341	0	-1571.4	3180	-7.335329341	
328	65.426	0.0033	-7.125748503	0	-1576.4	3190	-7.125748503	
329	65.601	0.0033	-6.706586826	0	-1581.4	3200	-6.706586826	
330	65.801	0.0033	-6.706586826	0	-1586.4	3210	-6.706586826	
331	66.001	0.003	-6.28742515	0	-1591.4	3220	-6.28742515	
332	66.201	0.003	-6.28742515	0	-1596.4	3230	-6.28742515	
333	66.401	0.0027	-6.077844311	0	-1601.4	3240	-6.077844311	
334	66.601	0.00255	-5.868263473	0	-1606.4	3250	-5.868263473	
335	66.801	0.0024	-5.658682635	0	-1611.4	3260	-5.658682635	
336	67.001	0.0021	-5.449101796	0	-1616.4	3270	-5.449101796	
337	67.201	0.0018	-5.02994012	0	-1621.4	3280	-5.02994012	
338	67.401	0.0015	-4.820359281	0	-1626.4	3290	-4.820359281	
339	67.601	0.00135	-4.610778443	0	-1631.4	3300	-4.610778443	
340	67.801	0.00105	-4.401197605	0	-1636.4	3310	-4.401197605	
341	68.001	0.00075	-4.191616766	0	-1641.4	3320	-4.191616766	
342	68.209	0.0006	-3.982035928	0	-1646.4	3330	-3.982035928	
343	68.401	0.00045	-3.562874251	0	-1651.4	3340	-3.562874251	
344	68.609	0.0003	-3.353293413	0	-1656.4	3350	-3.353293413	
345	68.817	0.00015	-3.143712575	0	-1661.4	3360	-3.143712575	
346	69.009	0	-2.934131737	0	-1666.4	3370	-2.934131737	
347	69.217	0	-2.724550898	0	-1671.4	3380	-2.724550898	
348	69.425	0	-2.51497006	0	-1676.4	3390	-2.51497006	
349	69.617	0	-2.305389222	0	-1681.4	3400	-2.305389222	
350	69.825	0.00015	-2.095808383	0	-1686.4	3410	-2.095808383	
351	70.001	0.00015	-1.886227545	0	-1691.4	3420	-1.886227545	
352	70.201	0.0003	-1.676646707	0	-1696.4	3430	-1.676646707	
353	70.401	0.0006	-1.467065868	0	-1701.4	3440	-1.467065868	
354	70.601	0.00075	-1.25748503	0	-1706.4	3450	-1.25748503	
355	70.801	0.0009	-1.047904192	0	-1711.4	3460	-1.047904192	
356	71.001	0.00105	-0.8383233533	0	-1716.4	3470	-0.8383233533	
357	71.201	0.00135	-0.628742515	0	-1721.4	3480	-0.628742515	
358	71.401	0.00165	-0.4191616766	0	-1726.4	3490	-0.4191616766	
359	71.601	0.00195	-0.2095808383	0	-1731.4	3500	-0.2095808383	
360	71.801	0.0021	-2.051137038E-14	0	-1736.4	3510	-2.051137038E-14	
361	72.001	0.0024	0.2095808383	0	-1741.4	3520	0.2095808383	
362	72.201	0.00255	0.4191616766	0	-1746.4	3530	0.4191616766	
363	72.401	0.00285	0.628742515	0	-1751.4	3540	0.628742515	
364	72.601	0.003	0.8383233533	0	-1756.4	3550	0.8383233533	
365	72.801	0.003	1.047904192	0	-1761.4	3560	1.047904192	
366	73.001	0.003	1.25748503	0	-1766.4	3570	1.25748503	
367	73.201	0.00315	1.676646707	0	-1771.4	3580	1.676646707	
368	73.401	0.003	1.886227545	0	-1776.4	3590	1.886227545	
369	73.601	0.003	2.095808383	0	-1781.4	3600	2.095808383	
370	73.808	0.00285	2.305389222	0	-1786.4	3610	2.305389222	
371	74.016	0.0027	2.51497006	0	-1791.4	3620	2.51497006	
372	74.207	0.0024	2.724550898	0	-1796.4	3630	2.724550898	
373	74.416	0.00225	2.934131737	0	-1801.4	3640	2.934131737	
374	74.623	0.00195	3.143712575	0	-1806.4	3650	3.143712575	
375	74.815	0.0018	3.562874251	0	-1811.4	3660	3.562874251	
376	75.023	0.0015	3.77245509	0	-1816.4	3670	3.77245509	
377	75.231	0.0012	4.191616766	0	-1821.4	3680	4.191616766	
378	75.423	0.00105	4.401197605	0	-1826.4	3690	4.401197605	
379	75.601	0.0009	4.610778443	0	-1831.4	3700	4.610778443	
380	75.801	0.00075	4.820359281	0	-1836.4	3710	4.820359281	
381	76.001	0.0006	5.02994012	0	-1841.4	3720	5.02994012	
382	76.201	0.00045	5.239520958	0	-1846.4	3730	5.239520958	
383	76.401	0.00045	5.658682635	0	-1851.4	3740	5.658682635	
384	76.601	0.00045	5.868263473	0	-1856.4	3750	5.868263473	
385	76.801	0.00045	6.077844311	0	-1861.4	3760	6.077844311	
386	77.001	0.00045	6.28742515	0	-1866.4	3770	6.28742515	
387	77.201	0.00045	6.497005988	0	-1871.4	3780	6.497005988	
388	77.401	0.00045	6.706586826	0	-1876.4	3790	6.706586826	
389	77.601	0.0009	7.125748503	0	-1881.4	3800	7.125748503	
390	77.801	0.00075	7.335329341	0	-1886.4	3810	7.335329341	
391	78.001	0.0009	7.54491018	0	-1891.4	3820	7.54491018	
392	78.206	0.00105	7.754491018	0	-1896.4	3830	7.754491018	
393	78.414	0.00105	7.964071856	0	-1901.4	3840	7.964071856	
394	78.606	0.00105	8.383233533	0	-1906.4	3850	8.383233533	
395	78.814	0.00105	8.592814371	0	-1911.4	3860	8.592814371	
396	79.022	0.00105	8.80239521	0	-1916.4	3870	8.80239521	
397	79.214	0.00105	9.011976048	0	-1921.4	3880	9.011976048	
398	79.422	0.0009	9.221556886	0	-1926.4	3890	9.221556886	
399	79.63	0.0009	9.640718563	0	-1931.4	3900	9.640718563	
400	79.822	0.00075	9.850299401	0	-1936.4	3910	9.850299401	
401	80.03	0.0006	10.05988024	0	-1941.4	3920	10.05988024	
402	80.201	0.00045	10.26946108	0	-1946.4	3930	10.26946108	
403	80.401	0.00045	10.47904192	0	-1951.4	3940	10.47904192	
404	80.601	0.00015	10.68862275	0	-1956.4	3950	10.68862275	
405	80.801	0.00015	10.89820359	0	-1961.4	3960	10.89820359	
406	81.001	0	11.31736527	0	-1966.4	3970	11.31736527	
407	81.201	0	11.52694611	0	-1971.4	3980	11.52694611	
408	81.401	0	11.73652695	0	-1976.4	3990	11.73652695	
409	81.601	0	11.94610778	0	-1981.4	4000	11.94610778	
410	81.801	0	12.15568862	0	-1986.4	4010	12.15568862	
411	82.001	0	12.36526946	0	-1991.4	4020	12.36526946	
412	82.201	0	12.5748503	0	-1996.4	4030	12.5748503	
413	82.401	0	12.78443114	0	-2001.4	4040	12.78443114	
414	82.601	0	12.99401198	0	-2006.4	4050	12.99401198	
415	82.801	0	13.41317365	0	-2011.4	4060	13.41317365	
416	83.001	0	13.62275449	0	-2016.4	4070	13.62275449	
417	83.201	0	13.83233533	0	-2021.4	4080	13.83233533	
418	83.405	0	14.04191617	0	-2026.4	4090	14.04191617	
419	83.601	0	14.25149701	0	-2031.4	4100	14.25149701	
420	83.805	0	14.46107784	0	-2036.4	4110	14.46107784	
421	84.013	0	14.67065868	0	-2041.4	4120	14.67065868	
422	84.205	0	15.08982036	0	-2046.4	4130	15.08982036	
423	84.413	0.00015	15.2994012	0	-2051.4	4140	15.2994012	
424	84.621	0	15.50898204	0	-2056.4	4150	15.50898204	
425	84.813	0	15.71856287	0	-2061.4	4160	15.71856287	
426	85.021	0	15.92814371	0	-2066.4	4170	15.92814371	
427	85.229	0	16.13772455	0	-2071.4	4180	16.13772455	
428	85.421	0	16.34730539	0	-2076.4	4190	16.34730539	
429	85.601	0	16.76646707	0	-2081.4	4200	16.76646707	
430	85.801	0	16.9760479	0	-2086.4	4210	16.9760479	
431	86.001	0	17.18562874	0	-2091.4	4220	17.18562874	
432	86.201	0	17.39520958	0	-2096.4	4230	17.39520958	
433	86.401	0	17.60479042	0	-2101.4	4240	17.60479042	
434	86.601	0	18.0239521	0	-2106.4	4250	18.0239521	
435	86.801	0	18.23353293	0	-2111.4	4260	18.23353293	
436	87.001	0	18.44311377	0	-2116.4	4270	18.44311377	
437	87.201	0	18.86227545	0	-2121.4	4280	18.86227545	
438	87.401	0	19.07185629	0	-2126.4	4290	19.07185629	
439	87.601	0	19.28143713	0	-2131.4	4300	19.28143713	
440	87.804	0	19.7005988	0	-2136.4	4310	19.7005988	
441	88.001	0	19.91017964	0	-2141.4	4320	19.91017964	
442	88.204	0	20.11976048	0	-2146.4	4330	20.11976048	
443	88.412	0.00015	20.32934132	0	-2151.4	4340	20.32934132	
444	88.604	0.00015	20.74850299	0	-2156.4	4350	20.74850299	
445	88.812	0.0003	20.95808383	0	-2161.4	4360	20.95808383	
446	89.02	0.0003	21.16766467	0	-2166.4	4370	21.16766467	
447	89.212	0.0003	21.58682635	0	-2171.4	4380	21.58682635	
448	89.42	0.00045	21.79640719	0	-2176.4	4390	21.79640719	
449	89.628	0.0003	22.00598802	0	-2181.4	4400	22.00598802	
450	89.82	0.0003	22.4251497	0	-2186.4	4410	22.4251497	
451	90.028	0.0003	22.84431138	0	-2191.4	4420	22.84431138	
452	90.201	0.0003	22.84431138	0	-2196.4	4430	22.84431138	
453	90.401	0.0003	23.05389222	0	-2201.4	4440	23.05389222	
454	90.601	0.00015	23.26347305	0	-2206.4	4450	23.26347305	
455	90.801	0.00015	23.47305389	0	-2211.4	4460	23.47305389	
456	91.001	0.00015	23.68263473	0	-2216.4	4470	23.68263473	
457	91.201	0	24.10179641	0	-2221.4	4480	24.10179641	
458	91.401	0	24.31137725	0	-2226.4	4490	24.31137725	
459	91.601	0	24.52095808	0	-2231.4	4500	24.52095808	
460	91.801	0	24.73053892	0	-2236.4	4510	24.73053892	
461	92.001	0	25.1497006	0	-2241.4	4520	25.1497006	
462	92.203	0	25.35928144	0	-2246.4	4530	25.35928144	
463	92.401	0	25.77844311	0	-2251.4	4540	25.77844311	
464	92.603	0	25.98802395	0	-2256.4	4550	25.98802395	
465	92.811	0	26.19760479	0	-2261.4	4560	26.19760479	
466	93.003	0	26.40718563	0	-2266.4	4570	26.40718563	
467	93.211	0	26.61676647	0	-2271.4	4580	26.61676647	
468	93.419	0	26.82634731	0	-2276.4	4590	26.82634731	
469	93.611	0	27.24550898	0	-2281.4	4600	27.24550898	
470	93.819	0	27.45508982	0	-2286.4	4610	27.45508982	
471	94.027	0.00015	27.66467066	0	-2291.4	4620	27.66467066	
472	94.219	0.00015	28.08383234	0	-2296.4	4630	28.08383234	
473	94.427	0	28.29341317	0	-2301.4	4640	28.29341317	
474	94.601	0.00015	28.50299401	0	-2306.4	4650	28.50299401	
475	94.801	0	28.71257485	0	-2311.4	4660	28.71257485	
476	95.001	0	28.92215569	0	-2316.4	4670	28.92215569	
477	95.201	0	29.34131737	0	-2321.4	4680	29.34131737	
478	95.401	0	29.5508982	0	-2326.4	4690	29.5508982	
479	95.601	0	29.76047904	0	-2331.4	4700	29.76047904	
480	95.801	0	29.97005988	0	-2336.4	4710	29.97005988	
481	96.001	0	30.17964072	0	-2341.4	4720	30.17964072	
482	96.201	0	30.38922156	0	-2346.4	4730	30.38922156	
483	96.401	0	30.5988024	0	-2351.4	4740	30.5988024	
484	96.602	0	30.80838323	0	-2356.4	4750	30.80838323	
485	96.801	-0.00015	31.01796407	0	-2361.4	4760	31.01796407	
486	97.002	0	31.22754491	0	-2366.4	4770	31.22754491	
487	97.21	-0.00015	31.43712575	0	-2371.4	4780	31.43712575	
488	97.402	0	31.64670659	0	-2376.4	4790	31.64670659	
489	97.61	0	32.06586826	0	-2381.4	4800	32.06586826	
490	97.818	0	32.2754491	0	-2386.4	4810	32.2754491	
491	98.01	0	32.48502994	0	-2391.4	4820	32.48502994	
492	98.218	0	32.69461078	0	-2396.4	4830	32.69461078	
493	98.426	0	32.90419162	0	-2401.4	4840	32.90419162	
494	98.617	0	33.32335329	0	-2406.4	4850	33.32335329	
495	98.825	0	33.53293413	0	-2411.4	4860	33.53293413	
496	99.001	0	33.74251497	0	-2416.4	4870	33.74251497	
497	99.201	0	33.95209581	0	-2421.4	4880	33.95209581	
498	99.401	0	34.37125749	0	-2426.4	4890	34.37125749	
499	99.601	0	34.58083832	0	-2431.4	4900	34.58083832	
500	99.801	0	35	0	-2436.4	4910	35	
1 0
1 0 524031
-1
-1
-1
-1
-1
-1
-1
0
1 0.2 100 1 0 -1 0 1 0 0 0 0 1
1
Standard
8 0 -75 75 3 0 -0.001275 0.030075 -1 5 0 0 0 -1 -1 -1 -1 -1 1 0 1 0 1 3 3 3 0 1 0
0
8447552 
0
