CL4
180 0.2
Index
n

0 501 100 0 0 0 0 1 0 0 0 0 0 500 1 1
Zeit
t
s
0 100 50 0 1 0 0 1 0 0 0 0 0 0 1 1
Frequenz
f
Hz
0 2.5 1 0 3 0 0 1 500 0 0 0 0 0 1 1
6 0
0 1 0 1
1 0 0 1 1 0 5 0 0 0 0 0 0 0 0 2500 0 0 0 1 1139 116 297 140 0.5 0 0 1 0
Spannung
U_A1
V
-0.3 0.3 0.1 0 4 0 0 0 0 1 1 0 0 0 1 1
524031 -2.668120157 334.0718563 1
1 1 0 1 1 1 0 0 0 0 0 0 0 0 0 2500 0 0 0 1 989 208 297 140 0.5 0 0 1 2
Weg
s_B1
cm
0 150 50 0 1 0 0 0 0 1 1 0 0 40.02994012 1 1
10 1 -1 0
20 0 0 0 1 0 0 0 0 0 10 0 1 0 0 2500 0 0 0 0 50 50 297 140 0.5 0 0 1 0
neue Größe
f_1

0 100 50 0 1 0 0 1 0 0 0 0 0 0 1 1
10 1 -1 n*(-5)+63.6
20 1 0 0 1 0 0 0 0 0 10 0 1 0 0 2500 0 0 0 0 371 309 297 140 0.5 0 0 1 0
d_kalib
d_kalib

0 100 50 0 1 0 0 1 0 0 0 0 0 -2436.4 1 1
10 1 -1 -80+(n-1)*10
20 2 0 0 1 0 0 0 0 0 1 0 1 0 0 2500 0 0 0 0 454 573 297 140 0.5 0 0 1 0
gamma
gamma
Grad
-80 80 50 0 4 0 0 1 0 0 0 0 0 4910 1 1
10 1 -1 sB1
20 3 0 0 1 0 0 0 0 0 10 0 1 0 0 2500 0 0 0 1 415 132 297 140 0.5 0 0 1 0
alpha_tunnel
alpha
°
-75 75 50 0 1 0 0 1 0 0 0 0 0 40.02994012 1 1
8 500
1	0	0.0003	-80.05988024	0	58.6	-80	-80.05988024	
2	0.2	0.0003	-80.05988024	0	53.6	-70	-80.05988024	
3	0.4	0.00015	-80.05988024	0	48.6	-60	-80.05988024	
4	0.601	0.0003	-80.05988024	0	43.6	-50	-80.05988024	
5	0.801	0.0003	-80.05988024	0	38.6	-40	-80.05988024	
6	1.001	0.0003	-80.05988024	0	33.6	-30	-80.05988024	
7	1.201	0.0003	-80.05988024	0	28.6	-20	-80.05988024	
8	1.401	0.0003	-80.05988024	0	23.6	-10	-80.05988024	
9	1.601	0.0003	-80.05988024	0	18.6	0	-80.05988024	
10	1.801	0.00015	-80.05988024	0	13.6	10	-80.05988024	
11	2.004	0.00015	-80.05988024	0	8.6	20	-80.05988024	
12	2.201	0.0003	-79.64071856	0	3.6	30	-79.64071856	
13	2.404	0.00045	-79.43113772	0	-1.4	40	-79.43113772	
14	2.612	0.00045	-79.22155689	0	-6.4	50	-79.22155689	
15	2.804	0.0006	-79.01197605	0	-11.4	60	-79.01197605	
16	3.012	0.0006	-78.80239521	0	-16.4	70	-78.80239521	
17	3.22	0.0006	-78.59281437	0	-21.4	80	-78.59281437	
18	3.412	0.0006	-78.38323353	0	-26.4	90	-78.38323353	
19	3.62	0.00045	-78.17365269	0	-31.4	100	-78.17365269	
20	3.828	0.0006	-77.96407186	0	-36.4	110	-77.96407186	
21	4.02	0.00075	-77.75449102	0	-41.4	120	-77.75449102	
22	4.201	0.00075	-77.54491018	0	-46.4	130	-77.54491018	
23	4.401	0.00075	-77.33532934	0	-51.4	140	-77.33532934	
24	4.601	0.00075	-77.1257485	0	-56.4	150	-77.1257485	
25	4.801	0.0009	-76.91616766	0	-61.4	160	-76.91616766	
26	5.001	0.0009	-76.49700599	0	-66.4	170	-76.49700599	
27	5.201	0.00105	-76.28742515	0	-71.4	180	-76.28742515	
28	5.401	0.0012	-76.07784431	0	-76.4	190	-76.07784431	
29	5.601	0.00135	-75.86826347	0	-81.4	200	-75.86826347	
30	5.801	0.00135	-75.65868263	0	-86.4	210	-75.65868263	
31	6.001	0.0015	-75.4491018	0	-91.4	220	-75.4491018	
32	6.201	0.0015	-75.23952096	0	-96.4	230	-75.23952096	
33	6.403	0.00165	-75.02994012	0	-101.4	240	-75.02994012	
34	6.601	0.00195	-74.82035928	0	-106.4	250	-74.82035928	
35	6.803	0.00225	-74.61077844	0	-111.4	260	-74.61077844	
36	7.011	0.0024	-74.4011976	0	-116.4	270	-74.4011976	
37	7.203	0.00285	-74.19161677	0	-121.4	280	-74.19161677	
38	7.411	0.0033	-73.98203593	0	-126.4	290	-73.98203593	
39	7.619	0.0036	-73.77245509	0	-131.4	300	-73.77245509	
40	7.811	0.0039	-73.35329341	0	-136.4	310	-73.35329341	
41	8.019	0.0042	-73.14371257	0	-141.4	320	-73.14371257	
42	8.227	0.0045	-72.93413174	0	-146.4	330	-72.93413174	
43	8.419	0.00495	-72.7245509	0	-151.4	340	-72.7245509	
44	8.601	0.00525	-72.51497006	0	-156.4	350	-72.51497006	
45	8.801	0.00585	-72.30538922	0	-161.4	360	-72.30538922	
46	9.001	0.00645	-72.09580838	0	-166.4	370	-72.09580838	
47	9.201	0.00675	-71.88622754	0	-171.4	380	-71.88622754	
48	9.401	0.0072	-71.67664671	0	-176.4	390	-71.67664671	
49	9.601	0.00765	-71.46706587	0	-181.4	400	-71.46706587	
50	9.801	0.00795	-71.25748503	0	-186.4	410	-71.25748503	
51	10.001	0.0081	-71.04790419	0	-191.4	420	-71.04790419	
52	10.201	0.0087	-70.62874251	0	-196.4	430	-70.62874251	
53	10.401	0.00945	-70.41916168	0	-201.4	440	-70.41916168	
54	10.601	0.00975	-70.20958084	0	-206.4	450	-70.20958084	
55	10.802	0.0099	-70	0	-211.4	460	-70	
56	11.001	0.0102	-69.58083832	0	-216.4	470	-69.58083832	
57	11.202	0.0105	-69.37125749	0	-221.4	480	-69.37125749	
58	11.41	0.0108	-69.16167665	0	-226.4	490	-69.16167665	
59	11.602	0.0114	-68.95209581	0	-231.4	500	-68.95209581	
60	11.81	0.012	-68.74251497	0	-236.4	510	-68.74251497	
61	12.018	0.0123	-68.32335329	0	-241.4	520	-68.32335329	
62	12.226	0.0126	-68.11377246	0	-246.4	530	-68.11377246	
63	12.417	0.0132	-67.90419162	0	-251.4	540	-67.90419162	
64	12.625	0.0138	-67.69461078	0	-256.4	550	-67.69461078	
65	12.833	0.01455	-67.48502994	0	-261.4	560	-67.48502994	
66	13.001	0.01515	-67.2754491	0	-266.4	570	-67.2754491	
67	13.201	0.01575	-67.06586826	0	-271.4	580	-67.06586826	
68	13.401	0.0162	-66.64670659	0	-276.4	590	-66.64670659	
69	13.601	0.01665	-66.43712575	0	-281.4	600	-66.43712575	
70	13.801	0.0174	-66.22754491	0	-286.4	610	-66.22754491	
71	14.001	0.01815	-66.01796407	0	-291.4	620	-66.01796407	
72	14.201	0.01875	-65.80838323	0	-296.4	630	-65.80838323	
73	14.401	0.0192	-65.5988024	0	-301.4	640	-65.5988024	
74	14.601	0.01965	-65.38922156	0	-306.4	650	-65.38922156	
75	14.801	0.02025	-64.97005988	0	-311.4	660	-64.97005988	
76	15.001	0.0204	-64.76047904	0	-316.4	670	-64.76047904	
77	15.201	0.0204	-64.5508982	0	-321.4	680	-64.5508982	
78	15.401	0.0201	-64.34131737	0	-326.4	690	-64.34131737	
79	15.601	0.0201	-64.13173653	0	-331.4	700	-64.13173653	
80	15.809	0.02025	-63.92215569	0	-336.4	710	-63.92215569	
81	16.001	0.02025	-63.71257485	0	-341.4	720	-63.71257485	
82	16.208	0.02025	-63.50299401	0	-346.4	730	-63.50299401	
83	16.417	0.01995	-63.29341317	0	-351.4	740	-63.29341317	
84	16.624	0.01965	-63.08383234	0	-356.4	750	-63.08383234	
85	16.816	0.0192	-62.8742515	0	-361.4	760	-62.8742515	
86	17.024	0.01905	-62.66467066	0	-366.4	770	-62.66467066	
87	17.232	0.01875	-62.45508982	0	-371.4	780	-62.45508982	
88	17.424	0.0183	-62.24550898	0	-376.4	790	-62.24550898	
89	17.601	0.0183	-62.03592814	0	-381.4	800	-62.03592814	
90	17.801	0.018	-61.82634731	0	-386.4	810	-61.82634731	
91	18.001	0.01785	-61.61676647	0	-391.4	820	-61.61676647	
92	18.201	0.0174	-61.61676647	0	-396.4	830	-61.61676647	
93	18.401	0.01695	-61.19760479	0	-401.4	840	-61.19760479	
94	18.601	0.01665	-61.19760479	0	-406.4	850	-61.19760479	
95	18.801	0.0162	-60.56886228	0	-411.4	860	-60.56886228	
96	19.001	0.01575	-60.56886228	0	-416.4	870	-60.56886228	
97	19.201	0.0153	-60.35928144	0	-421.4	880	-60.35928144	
98	19.401	0.0147	-60.1497006	0	-426.4	890	-60.1497006	
99	19.601	0.0144	-59.94011976	0	-431.4	900	-59.94011976	
100	19.801	0.0141	-59.73053892	0	-436.4	910	-59.73053892	
101	20.001	0.0138	-59.52095808	0	-441.4	920	-59.52095808	
102	20.208	0.01365	-59.10179641	0	-446.4	930	-59.10179641	
103	20.401	0.0132	-58.89221557	0	-451.4	940	-58.89221557	
104	20.607	0.01245	-58.68263473	0	-456.4	950	-58.68263473	
105	20.815	0.01185	-58.47305389	0	-461.4	960	-58.47305389	
106	21.023	0.01125	-57.84431138	0	-466.4	970	-57.84431138	
107	21.215	0.0111	-57.84431138	0	-471.4	980	-57.84431138	
108	21.423	0.01035	-57.4251497	0	-476.4	990	-57.4251497	
109	21.631	0.00975	-57.4251497	0	-481.4	1000	-57.4251497	
110	21.823	0.0093	-57.4251497	0	-486.4	1010	-57.4251497	
111	22.001	0.00855	-57.00598802	0	-491.4	1020	-57.00598802	
112	22.201	0.00825	-56.79640719	0	-496.4	1030	-56.79640719	
113	22.401	0.00765	-56.58682635	0	-501.4	1040	-56.58682635	
114	22.601	0.00705	-56.37724551	0	-506.4	1050	-56.37724551	
115	22.801	0.0066	-56.16766467	0	-511.4	1060	-56.16766467	
116	23.001	0.00615	-55.74850299	0	-516.4	1070	-55.74850299	
117	23.201	0.0057	-55.53892216	0	-521.4	1080	-55.53892216	
118	23.401	0.0051	-55.32934132	0	-526.4	1090	-55.32934132	
119	23.601	0.0048	-55.11976048	0	-531.4	1100	-55.11976048	
120	23.801	0.00435	-54.91017964	0	-536.4	1110	-54.91017964	
121	24.001	0.0039	-54.7005988	0	-541.4	1120	-54.7005988	
122	24.201	0.00345	-54.49101796	0	-546.4	1130	-54.49101796	
123	24.401	0.003	-54.28143713	0	-551.4	1140	-54.28143713	
124	24.606	0.0027	-54.07185629	0	-556.4	1150	-54.07185629	
125	24.814	0.0024	-53.65269461	0	-561.4	1160	-53.65269461	
126	25.006	0.0021	-53.44311377	0	-566.4	1170	-53.44311377	
127	25.214	0.0018	-53.23353293	0	-571.4	1180	-53.23353293	
128	25.422	0.0015	-53.0239521	0	-576.4	1190	-53.0239521	
129	25.614	0.00135	-52.81437126	0	-581.4	1200	-52.81437126	
130	25.822	0.00105	-52.60479042	0	-586.4	1210	-52.60479042	
131	26.03	0.0009	-52.39520958	0	-591.4	1220	-52.39520958	
132	26.222	0.00075	-51.9760479	0	-596.4	1230	-51.9760479	
133	26.43	0.00075	-51.76646707	0	-601.4	1240	-51.76646707	
134	26.601	0.0006	-51.55688623	0	-606.4	1250	-51.55688623	
135	26.801	0.0006	-51.34730539	0	-611.4	1260	-51.34730539	
136	27.001	0.0003	-51.13772455	0	-616.4	1270	-51.13772455	
137	27.201	0.00045	-50.92814371	0	-621.4	1280	-50.92814371	
138	27.401	0.0003	-50.50898204	0	-626.4	1290	-50.50898204	
139	27.601	0.0003	-50.2994012	0	-631.4	1300	-50.2994012	
140	27.801	0.0003	-50.08982036	0	-636.4	1310	-50.08982036	
141	28.001	0.0003	-49.88023952	0	-641.4	1320	-49.88023952	
142	28.201	0.00015	-49.67065868	0	-646.4	1330	-49.67065868	
143	28.401	0.00015	-49.46107784	0	-651.4	1340	-49.46107784	
144	28.601	0.00015	-49.25149701	0	-656.4	1350	-49.25149701	
145	28.801	0.00015	-49.04191617	0	-661.4	1360	-49.04191617	
146	29.001	0.00015	-48.83233533	0	-666.4	1370	-48.83233533	
147	29.201	0.00015	-48.62275449	0	-671.4	1380	-48.62275449	
148	29.401	0	-48.41317365	0	-676.4	1390	-48.41317365	
149	29.601	0.00015	-48.20359281	0	-681.4	1400	-48.20359281	
150	29.805	0.00015	-47.99401198	0	-686.4	1410	-47.99401198	
151	30.001	0	-47.78443114	0	-691.4	1420	-47.78443114	
152	30.205	0	-47.5748503	0	-696.4	1430	-47.5748503	
153	30.413	0	-47.36526946	0	-701.4	1440	-47.36526946	
154	30.605	0	-47.15568862	0	-706.4	1450	-47.15568862	
155	30.813	0	-47.15568862	0	-711.4	1460	-47.15568862	
156	31.021	0	-46.94610778	0	-716.4	1470	-46.94610778	
157	31.213	0	-46.52694611	0	-721.4	1480	-46.52694611	
158	31.421	0	-46.52694611	0	-726.4	1490	-46.52694611	
159	31.629	0	-46.31736527	0	-731.4	1500	-46.31736527	
160	31.821	0	-46.10778443	0	-736.4	1510	-46.10778443	
161	32.001	0	-45.89820359	0	-741.4	1520	-45.89820359	
162	32.201	0	-45.68862275	0	-746.4	1530	-45.68862275	
163	32.401	0	-45.47904192	0	-751.4	1540	-45.47904192	
164	32.601	0	-45.26946108	0	-756.4	1550	-45.26946108	
165	32.801	0	-45.05988024	0	-761.4	1560	-45.05988024	
166	33.001	0	-44.8502994	0	-766.4	1570	-44.8502994	
167	33.201	0	-44.43113772	0	-771.4	1580	-44.43113772	
168	33.401	0	-44.22155689	0	-776.4	1590	-44.22155689	
169	33.601	0	-44.22155689	0	-781.4	1600	-44.22155689	
170	33.801	0	-44.01197605	0	-786.4	1610	-44.01197605	
171	34.001	0	-43.59281437	0	-791.4	1620	-43.59281437	
172	34.204	0	-43.38323353	0	-796.4	1630	-43.38323353	
173	34.401	0	-43.17365269	0	-801.4	1640	-43.17365269	
174	34.604	0	-42.96407186	0	-806.4	1650	-42.96407186	
175	34.812	0	-42.75449102	0	-811.4	1660	-42.75449102	
176	35.004	0	-42.54491018	0	-816.4	1670	-42.54491018	
177	35.212	0	-42.33532934	0	-821.4	1680	-42.33532934	
178	35.42	0	-41.91616766	0	-826.4	1690	-41.91616766	
179	35.612	0	-41.70658683	0	-831.4	1700	-41.70658683	
180	35.82	0	-41.49700599	0	-836.4	1710	-41.49700599	
181	36.027	0	-41.28742515	0	-841.4	1720	-41.28742515	
182	36.219	0	-41.28742515	0	-846.4	1730	-41.28742515	
183	36.427	0	-41.07784431	0	-851.4	1740	-41.07784431	
184	36.601	0	-40.86826347	0	-856.4	1750	-40.86826347	
185	36.801	0	-40.65868263	0	-861.4	1760	-40.65868263	
186	37.001	0	-40.4491018	0	-866.4	1770	-40.4491018	
187	37.201	0	-40.23952096	0	-871.4	1780	-40.23952096	
188	37.401	0	-40.02994012	0	-876.4	1790	-40.02994012	
189	37.601	0	-39.61077844	0	-881.4	1800	-39.61077844	
190	37.801	0	-39.4011976	0	-886.4	1810	-39.4011976	
191	38.001	0	-39.19161677	0	-891.4	1820	-39.19161677	
192	38.201	0	-38.98203593	0	-896.4	1830	-38.98203593	
193	38.401	0	-38.77245509	0	-901.4	1840	-38.77245509	
194	38.603	0	-38.56287425	0	-906.4	1850	-38.56287425	
195	38.801	-0.00015	-38.14371257	0	-911.4	1860	-38.14371257	
196	39.003	0	-38.14371257	0	-916.4	1870	-38.14371257	
197	39.211	0	-37.7245509	0	-921.4	1880	-37.7245509	
198	39.403	0	-37.51497006	0	-926.4	1890	-37.51497006	
199	39.611	0	-37.30538922	0	-931.4	1900	-37.30538922	
200	39.819	0	-37.09580838	0	-936.4	1910	-37.09580838	
201	40.01	0	-36.88622754	0	-941.4	1920	-36.88622754	
202	40.218	0	-36.67664671	0	-946.4	1930	-36.67664671	
203	40.426	0	-36.46706587	0	-951.4	1940	-36.46706587	
204	40.618	0	-36.25748503	0	-956.4	1950	-36.25748503	
205	40.826	0	-35.83832335	0	-961.4	1960	-35.83832335	
206	41.001	0	-35.62874251	0	-966.4	1970	-35.62874251	
207	41.201	0	-35.62874251	0	-971.4	1980	-35.62874251	
208	41.401	0.00015	-35.20958084	0	-976.4	1990	-35.20958084	
209	41.601	0.00015	-35.20958084	0	-981.4	2000	-35.20958084	
210	41.801	0.0003	-34.79041916	0	-986.4	2010	-34.79041916	
211	42.001	0.00015	-34.79041916	0	-991.4	2020	-34.79041916	
212	42.201	0.0003	-34.58083832	0	-996.4	2030	-34.58083832	
213	42.401	0.00015	-34.37125749	0	-1001.4	2040	-34.37125749	
214	42.601	0.0003	-34.16167665	0	-1006.4	2050	-34.16167665	
215	42.801	0.0003	-33.95209581	0	-1011.4	2060	-33.95209581	
216	43.002	0.00015	-33.74251497	0	-1016.4	2070	-33.74251497	
217	43.201	0.00015	-33.53293413	0	-1021.4	2080	-33.53293413	
218	43.402	0.00015	-33.32335329	0	-1026.4	2090	-33.32335329	
219	43.61	0.00015	-33.11377246	0	-1031.4	2100	-33.11377246	
220	43.802	0.00015	-32.90419162	0	-1036.4	2110	-32.90419162	
221	44.009	0.00015	-32.69461078	0	-1041.4	2120	-32.69461078	
222	44.217	0.00015	-32.48502994	0	-1046.4	2130	-32.48502994	
223	44.409	0.00015	-32.2754491	0	-1051.4	2140	-32.2754491	
224	44.617	0	-32.06586826	0	-1056.4	2150	-32.06586826	
225	44.825	0	-31.85628743	0	-1061.4	2160	-31.85628743	
226	45.017	0	-31.64670659	0	-1066.4	2170	-31.64670659	
227	45.225	0	-31.43712575	0	-1071.4	2180	-31.43712575	
228	45.433	0	-31.22754491	0	-1076.4	2190	-31.22754491	
229	45.601	0	-31.22754491	0	-1081.4	2200	-31.22754491	
230	45.801	0	-31.01796407	0	-1086.4	2210	-31.01796407	
231	46.001	0	-30.80838323	0	-1091.4	2220	-30.80838323	
232	46.201	0	-30.5988024	0	-1096.4	2230	-30.5988024	
233	46.401	0	-30.38922156	0	-1101.4	2240	-30.38922156	
234	46.601	0	-30.17964072	0	-1106.4	2250	-30.17964072	
235	46.801	0	-29.97005988	0	-1111.4	2260	-29.97005988	
236	47.001	0	-29.76047904	0	-1116.4	2270	-29.76047904	
237	47.201	0	-29.5508982	0	-1121.4	2280	-29.5508982	
238	47.401	0	-29.5508982	0	-1126.4	2290	-29.5508982	
239	47.601	0	-29.34131737	0	-1131.4	2300	-29.34131737	
240	47.801	0	-29.13173653	0	-1136.4	2310	-29.13173653	
241	48.001	0	-28.71257485	0	-1141.4	2320	-28.71257485	
242	48.201	0	-28.50299401	0	-1146.4	2330	-28.50299401	
243	48.401	0	-28.29341317	0	-1151.4	2340	-28.29341317	
244	48.601	0	-28.08383234	0	-1156.4	2350	-28.08383234	
245	48.801	0	-27.8742515	0	-1161.4	2360	-27.8742515	
246	49.001	0	-27.66467066	0	-1166.4	2370	-27.66467066	
247	49.208	0	-27.45508982	0	-1171.4	2380	-27.45508982	
248	49.401	0	-27.24550898	0	-1176.4	2390	-27.24550898	
249	49.608	-0.00015	-27.03592814	0	-1181.4	2400	-27.03592814	
250	49.816	0	-26.82634731	0	-1186.4	2410	-26.82634731	
251	50.008	0	-26.61676647	0	-1191.4	2420	-26.61676647	
252	50.216	-0.00015	-26.19760479	0	-1196.4	2430	-26.19760479	
253	50.424	-0.00015	-25.98802395	0	-1201.4	2440	-25.98802395	
254	50.616	0	-25.77844311	0	-1206.4	2450	-25.77844311	
255	50.824	0	-25.56886228	0	-1211.4	2460	-25.56886228	
256	51.001	-0.00015	-25.35928144	0	-1216.4	2470	-25.35928144	
257	51.201	0	-24.94011976	0	-1221.4	2480	-24.94011976	
258	51.401	0	-24.73053892	0	-1226.4	2490	-24.73053892	
259	51.601	0	-24.52095808	0	-1231.4	2500	-24.52095808	
260	51.801	-0.00015	-24.31137725	0	-1236.4	2510	-24.31137725	
261	52.001	0	-24.10179641	0	-1241.4	2520	-24.10179641	
262	52.201	0	-23.89221557	0	-1246.4	2530	-23.89221557	
263	52.401	0	-23.68263473	0	-1251.4	2540	-23.68263473	
264	52.601	0	-23.47305389	0	-1256.4	2550	-23.47305389	
265	52.801	0.00015	-23.05389222	0	-1261.4	2560	-23.05389222	
266	53.001	0.00015	-23.05389222	0	-1266.4	2570	-23.05389222	
267	53.201	0	-22.84431138	0	-1271.4	2580	-22.84431138	
268	53.401	0.00015	-22.63473054	0	-1276.4	2590	-22.63473054	
269	53.607	0.00015	-22.4251497	0	-1281.4	2600	-22.4251497	
270	53.801	0.0003	-22.00598802	0	-1286.4	2610	-22.00598802	
271	54.007	0.0003	-21.79640719	0	-1291.4	2620	-21.79640719	
272	54.215	0.0003	-21.58682635	0	-1296.4	2630	-21.58682635	
273	54.407	0.0003	-21.37724551	0	-1301.4	2640	-21.37724551	
274	54.615	0.0003	-21.16766467	0	-1306.4	2650	-21.16766467	
275	54.823	0.0003	-20.95808383	0	-1311.4	2660	-20.95808383	
276	55.015	0.0003	-20.74850299	0	-1316.4	2670	-20.74850299	
277	55.223	0.0003	-20.53892216	0	-1321.4	2680	-20.53892216	
278	55.431	0.0003	-20.32934132	0	-1326.4	2690	-20.32934132	
279	55.601	0.0003	-20.11976048	0	-1331.4	2700	-20.11976048	
280	55.801	0.00015	-19.91017964	0	-1336.4	2710	-19.91017964	
281	56.001	0.0003	-19.7005988	0	-1341.4	2720	-19.7005988	
282	56.201	0.00015	-19.49101796	0	-1346.4	2730	-19.49101796	
283	56.401	0.0003	-19.07185629	0	-1351.4	2740	-19.07185629	
284	56.601	0.00015	-18.86227545	0	-1356.4	2750	-18.86227545	
285	56.801	0.00015	-18.65269461	0	-1361.4	2760	-18.65269461	
286	57.001	0.00015	-18.44311377	0	-1366.4	2770	-18.44311377	
287	57.201	0.00015	-18.23353293	0	-1371.4	2780	-18.23353293	
288	57.401	0	-18.0239521	0	-1376.4	2790	-18.0239521	
289	57.601	0	-17.81437126	0	-1381.4	2800	-17.81437126	
290	57.801	0	-17.60479042	0	-1386.4	2810	-17.60479042	
291	58.001	0	-17.39520958	0	-1391.4	2820	-17.39520958	
292	58.201	0	-17.18562874	0	-1396.4	2830	-17.18562874	
293	58.401	0	-17.18562874	0	-1401.4	2840	-17.18562874	
294	58.601	0.00015	-16.76646707	0	-1406.4	2850	-16.76646707	
295	58.806	0.00015	-16.76646707	0	-1411.4	2860	-16.76646707	
296	59.001	0.00015	-16.34730539	0	-1416.4	2870	-16.34730539	
297	59.206	0.00015	-16.34730539	0	-1421.4	2880	-16.34730539	
298	59.414	0.0003	-16.13772455	0	-1426.4	2890	-16.13772455	
299	59.606	0.00045	-15.92814371	0	-1431.4	2900	-15.92814371	
300	59.813	0.00045	-15.71856287	0	-1436.4	2910	-15.71856287	
301	60.021	0.0006	-15.50898204	0	-1441.4	2920	-15.50898204	
302	60.213	0.00075	-15.2994012	0	-1446.4	2930	-15.2994012	
303	60.421	0.00075	-15.08982036	0	-1451.4	2940	-15.08982036	
304	60.629	0.0009	-14.88023952	0	-1456.4	2950	-14.88023952	
305	60.821	0.0009	-14.67065868	0	-1461.4	2960	-14.67065868	
306	61.001	0.0012	-14.67065868	0	-1466.4	2970	-14.67065868	
307	61.201	0.00135	-14.46107784	0	-1471.4	2980	-14.46107784	
308	61.401	0.0015	-14.25149701	0	-1476.4	2990	-14.25149701	
309	61.601	0.00165	-14.04191617	0	-1481.4	3000	-14.04191617	
310	61.801	0.0018	-13.83233533	0	-1486.4	3010	-13.83233533	
311	62.001	0.0018	-13.62275449	0	-1491.4	3020	-13.62275449	
312	62.201	0.0021	-13.41317365	0	-1496.4	3030	-13.41317365	
313	62.401	0.00225	-13.20359281	0	-1501.4	3040	-13.20359281	
314	62.601	0.0024	-12.99401198	0	-1506.4	3050	-12.99401198	
315	62.801	0.0027	-12.78443114	0	-1511.4	3060	-12.78443114	
316	63.001	0.00285	-12.5748503	0	-1516.4	3070	-12.5748503	
317	63.205	0.00315	-12.36526946	0	-1521.4	3080	-12.36526946	
318	63.401	0.00315	-11.94610778	0	-1526.4	3090	-11.94610778	
319	63.605	0.00345	-11.73652695	0	-1531.4	3100	-11.73652695	
320	63.812	0.0036	-11.52694611	0	-1536.4	3110	-11.52694611	
321	64.005	0.0036	-11.31736527	0	-1541.4	3120	-11.31736527	
322	64.212	0.0042	-11.10778443	0	-1546.4	3130	-11.10778443	
323	64.42	0.0042	-10.89820359	0	-1551.4	3140	-10.89820359	
324	64.612	0.0042	-10.68862275	0	-1556.4	3150	-10.68862275	
325	64.82	0.0045	-10.26946108	0	-1561.4	3160	-10.26946108	
326	65.028	0.00465	-10.05988024	0	-1566.4	3170	-10.05988024	
327	65.22	0.0048	-9.850299401	0	-1571.4	3180	-9.850299401	
328	65.428	0.00495	-9.640718563	0	-1576.4	3190	-9.640718563	
329	65.601	0.00495	-9.640718563	0	-1581.4	3200	-9.640718563	
330	65.801	0.00495	-9.431137725	0	-1586.4	3210	-9.431137725	
331	66.001	0.00495	-9.221556886	0	-1591.4	3220	-9.221556886	
332	66.201	0.00495	-8.80239521	0	-1596.4	3230	-8.80239521	
333	66.401	0.00495	-8.592814371	0	-1601.4	3240	-8.592814371	
334	66.601	0.00495	-8.383233533	0	-1606.4	3250	-8.383233533	
335	66.801	0.0048	-8.173652695	0	-1611.4	3260	-8.173652695	
336	67.001	0.0048	-7.964071856	0	-1616.4	3270	-7.964071856	
337	67.201	0.00465	-7.754491018	0	-1621.4	3280	-7.754491018	
338	67.401	0.0045	-7.54491018	0	-1626.4	3290	-7.54491018	
339	67.604	0.00435	-7.335329341	0	-1631.4	3300	-7.335329341	
340	67.801	0.00435	-7.125748503	0	-1636.4	3310	-7.125748503	
341	68.003	0.0042	-6.706586826	0	-1641.4	3320	-6.706586826	
342	68.211	0.00405	-6.497005988	0	-1646.4	3330	-6.497005988	
343	68.403	0.0039	-6.28742515	0	-1651.4	3340	-6.28742515	
344	68.611	0.00375	-6.077844311	0	-1656.4	3350	-6.077844311	
345	68.819	0.0036	-5.868263473	0	-1661.4	3360	-5.868263473	
346	69.011	0.0036	-5.658682635	0	-1666.4	3370	-5.658682635	
347	69.219	0.0036	-5.449101796	0	-1671.4	3380	-5.449101796	
348	69.427	0.0036	-5.239520958	0	-1676.4	3390	-5.239520958	
349	69.619	0.00375	-5.02994012	0	-1681.4	3400	-5.02994012	
350	69.827	0.00375	-4.610778443	0	-1686.4	3410	-4.610778443	
351	70.001	0.00405	-4.401197605	0	-1691.4	3420	-4.401197605	
352	70.201	0.0042	-4.191616766	0	-1696.4	3430	-4.191616766	
353	70.401	0.0045	-3.982035928	0	-1701.4	3440	-3.982035928	
354	70.601	0.0048	-3.77245509	0	-1706.4	3450	-3.77245509	
355	70.801	0.00525	-3.562874251	0	-1711.4	3460	-3.562874251	
356	71.001	0.0057	-3.353293413	0	-1716.4	3470	-3.353293413	
357	71.201	0.00615	-3.143712575	0	-1721.4	3480	-3.143712575	
358	71.401	0.0066	-2.934131737	0	-1726.4	3490	-2.934131737	
359	71.601	0.00735	-2.724550898	0	-1731.4	3500	-2.724550898	
360	71.801	0.00795	-2.51497006	0	-1736.4	3510	-2.51497006	
361	72.002	0.0087	-2.305389222	0	-1741.4	3520	-2.305389222	
362	72.201	0.00915	-2.095808383	0	-1746.4	3530	-2.095808383	
363	72.403	0.00975	-1.886227545	0	-1751.4	3540	-1.886227545	
364	72.61	0.0102	-1.676646707	0	-1756.4	3550	-1.676646707	
365	72.802	0.01095	-1.467065868	0	-1761.4	3560	-1.467065868	
366	73.01	0.0114	-1.25748503	0	-1766.4	3570	-1.25748503	
367	73.218	0.01185	-1.047904192	0	-1771.4	3580	-1.047904192	
368	73.41	0.01215	-0.8383233533	0	-1776.4	3590	-0.8383233533	
369	73.618	0.0126	-0.8383233533	0	-1781.4	3600	-0.8383233533	
370	73.826	0.0129	-0.628742515	0	-1786.4	3610	-0.628742515	
371	74.018	0.01305	-0.4191616766	0	-1791.4	3620	-0.4191616766	
372	74.226	0.0132	-0.2095808383	0	-1796.4	3630	-0.2095808383	
373	74.434	0.0132	-2.051137038E-14	0	-1801.4	3640	-2.051137038E-14	
374	74.601	0.0132	0.2095808383	0	-1806.4	3650	0.2095808383	
375	74.801	0.0132	0.4191616766	0	-1811.4	3660	0.4191616766	
376	75.001	0.0132	0.628742515	0	-1816.4	3670	0.628742515	
377	75.201	0.0132	0.8383233533	0	-1821.4	3680	0.8383233533	
378	75.401	0.01275	1.047904192	0	-1826.4	3690	1.047904192	
379	75.601	0.0123	1.25748503	0	-1831.4	3700	1.25748503	
380	75.801	0.012	1.467065868	0	-1836.4	3710	1.467065868	
381	76.001	0.0114	1.467065868	0	-1841.4	3720	1.467065868	
382	76.201	0.0111	1.676646707	0	-1846.4	3730	1.676646707	
383	76.401	0.0105	1.886227545	0	-1851.4	3740	1.886227545	
384	76.601	0.0099	2.095808383	0	-1856.4	3750	2.095808383	
385	76.801	0.00915	2.51497006	0	-1861.4	3760	2.51497006	
386	77.009	0.00855	2.724550898	0	-1866.4	3770	2.724550898	
387	77.201	0.00795	2.934131737	0	-1871.4	3780	2.934131737	
388	77.409	0.00735	2.934131737	0	-1876.4	3790	2.934131737	
389	77.617	0.00645	3.143712575	0	-1881.4	3800	3.143712575	
390	77.809	0.00585	3.562874251	0	-1886.4	3810	3.562874251	
391	78.017	0.00525	3.77245509	0	-1891.4	3820	3.77245509	
392	78.225	0.00465	3.982035928	0	-1896.4	3830	3.982035928	
393	78.417	0.00435	4.191616766	0	-1901.4	3840	4.191616766	
394	78.625	0.00375	4.401197605	0	-1906.4	3850	4.401197605	
395	78.833	0.00345	4.610778443	0	-1911.4	3860	4.610778443	
396	79.001	0.003	4.820359281	0	-1916.4	3870	4.820359281	
397	79.201	0.0027	5.02994012	0	-1921.4	3880	5.02994012	
398	79.401	0.00225	5.449101796	0	-1926.4	3890	5.449101796	
399	79.601	0.0021	5.658682635	0	-1931.4	3900	5.658682635	
400	79.801	0.0018	5.868263473	0	-1936.4	3910	5.868263473	
401	80.001	0.00195	6.077844311	0	-1941.4	3920	6.077844311	
402	80.201	0.00165	6.28742515	0	-1946.4	3930	6.28742515	
403	80.401	0.00165	6.497005988	0	-1951.4	3940	6.497005988	
404	80.601	0.00165	6.706586826	0	-1956.4	3950	6.706586826	
405	80.801	0.0018	6.916167665	0	-1961.4	3960	6.916167665	
406	81.001	0.0018	7.125748503	0	-1966.4	3970	7.125748503	
407	81.201	0.0018	7.54491018	0	-1971.4	3980	7.54491018	
408	81.408	0.00195	7.754491018	0	-1976.4	3990	7.754491018	
409	81.601	0.00195	7.964071856	0	-1981.4	4000	7.964071856	
410	81.808	0.00195	7.964071856	0	-1986.4	4010	7.964071856	
411	82.016	0.00195	8.383233533	0	-1991.4	4020	8.383233533	
412	82.208	0.00195	8.592814371	0	-1996.4	4030	8.592814371	
413	82.416	0.00195	8.80239521	0	-2001.4	4040	8.80239521	
414	82.624	0.0018	9.011976048	0	-2006.4	4050	9.011976048	
415	82.816	0.0018	9.221556886	0	-2011.4	4060	9.221556886	
416	83.024	0.00165	9.640718563	0	-2016.4	4070	9.640718563	
417	83.232	0.00135	9.850299401	0	-2021.4	4080	9.850299401	
418	83.401	0.0012	10.05988024	0	-2026.4	4090	10.05988024	
419	83.601	0.00105	10.26946108	0	-2031.4	4100	10.26946108	
420	83.801	0.0009	10.47904192	0	-2036.4	4110	10.47904192	
421	84.001	0.00075	10.68862275	0	-2041.4	4120	10.68862275	
422	84.201	0.0006	10.89820359	0	-2046.4	4130	10.89820359	
423	84.401	0.0006	11.10778443	0	-2051.4	4140	11.10778443	
424	84.601	0.00045	11.31736527	0	-2056.4	4150	11.31736527	
425	84.801	0.0003	11.52694611	0	-2061.4	4160	11.52694611	
426	85.001	0.00015	11.73652695	0	-2066.4	4170	11.73652695	
427	85.201	0.00015	11.94610778	0	-2071.4	4180	11.94610778	
428	85.401	0	12.36526946	0	-2076.4	4190	12.36526946	
429	85.601	0.00015	12.5748503	0	-2081.4	4200	12.5748503	
430	85.807	0	12.78443114	0	-2086.4	4210	12.78443114	
431	86.001	0	12.99401198	0	-2091.4	4220	12.99401198	
432	86.207	0	13.20359281	0	-2096.4	4230	13.20359281	
433	86.415	0	13.41317365	0	-2101.4	4240	13.41317365	
434	86.608	0	13.62275449	0	-2106.4	4250	13.62275449	
435	86.815	0	13.83233533	0	-2111.4	4260	13.83233533	
436	87.023	0	14.04191617	0	-2116.4	4270	14.04191617	
437	87.215	0	14.25149701	0	-2121.4	4280	14.25149701	
438	87.422	0	14.46107784	0	-2126.4	4290	14.46107784	
439	87.63	0	14.67065868	0	-2131.4	4300	14.67065868	
440	87.822	0	14.88023952	0	-2136.4	4310	14.88023952	
441	88.001	0	14.88023952	0	-2141.4	4320	14.88023952	
442	88.201	0	15.08982036	0	-2146.4	4330	15.08982036	
443	88.401	0	15.50898204	0	-2151.4	4340	15.50898204	
444	88.601	0	15.71856287	0	-2156.4	4350	15.71856287	
445	88.801	0	15.92814371	0	-2161.4	4360	15.92814371	
446	89.001	0	15.92814371	0	-2166.4	4370	15.92814371	
447	89.201	-0.00015	16.34730539	0	-2171.4	4380	16.34730539	
448	89.401	0	16.55688623	0	-2176.4	4390	16.55688623	
449	89.601	0	16.76646707	0	-2181.4	4400	16.76646707	
450	89.801	0	16.9760479	0	-2186.4	4410	16.9760479	
451	90.001	0	17.18562874	0	-2191.4	4420	17.18562874	
452	90.201	0	17.39520958	0	-2196.4	4430	17.39520958	
453	90.401	0	17.60479042	0	-2201.4	4440	17.60479042	
454	90.601	0	18.0239521	0	-2206.4	4450	18.0239521	
455	90.801	0	18.23353293	0	-2211.4	4460	18.23353293	
456	91.001	0	18.44311377	0	-2216.4	4470	18.44311377	
457	91.201	0	18.65269461	0	-2221.4	4480	18.65269461	
458	91.405	0	19.07185629	0	-2226.4	4490	19.07185629	
459	91.601	0	19.07185629	0	-2231.4	4500	19.07185629	
460	91.805	0	19.49101796	0	-2236.4	4510	19.49101796	
461	92.013	0	19.91017964	0	-2241.4	4520	19.91017964	
462	92.205	0	20.11976048	0	-2246.4	4530	20.11976048	
463	92.414	0	20.32934132	0	-2251.4	4540	20.32934132	
464	92.621	0	20.74850299	0	-2256.4	4550	20.74850299	
465	92.813	0	20.95808383	0	-2261.4	4560	20.95808383	
466	93.021	0	21.16766467	0	-2266.4	4570	21.16766467	
467	93.229	0	21.37724551	0	-2271.4	4580	21.37724551	
468	93.421	0	21.79640719	0	-2276.4	4590	21.79640719	
469	93.601	0	22.00598802	0	-2281.4	4600	22.00598802	
470	93.801	0	22.21556886	0	-2286.4	4610	22.21556886	
471	94.001	0	22.63473054	0	-2291.4	4620	22.63473054	
472	94.201	0	22.84431138	0	-2296.4	4630	22.84431138	
473	94.401	0	23.05389222	0	-2301.4	4640	23.05389222	
474	94.601	0	23.26347305	0	-2306.4	4650	23.26347305	
475	94.801	0	23.47305389	0	-2311.4	4660	23.47305389	
476	95.001	0	23.89221557	0	-2316.4	4670	23.89221557	
477	95.201	0	24.10179641	0	-2321.4	4680	24.10179641	
478	95.401	0	24.31137725	0	-2326.4	4690	24.31137725	
479	95.601	0	24.52095808	0	-2331.4	4700	24.52095808	
480	95.804	-0.00015	24.94011976	0	-2336.4	4710	24.94011976	
481	96.001	0	25.1497006	0	-2341.4	4720	25.1497006	
482	96.204	-0.00015	25.35928144	0	-2346.4	4730	25.35928144	
483	96.412	0	25.77844311	0	-2351.4	4740	25.77844311	
484	96.604	-0.00015	25.98802395	0	-2356.4	4750	25.98802395	
485	96.812	0	26.19760479	0	-2361.4	4760	26.19760479	
486	97.02	0	26.40718563	0	-2366.4	4770	26.40718563	
487	97.212	0	26.61676647	0	-2371.4	4780	26.61676647	
488	97.42	0	27.03592814	0	-2376.4	4790	27.03592814	
489	97.628	0	27.24550898	0	-2381.4	4800	27.24550898	
490	97.836	0	27.45508982	0	-2386.4	4810	27.45508982	
491	98.001	0	27.66467066	0	-2391.4	4820	27.66467066	
492	98.201	0	28.08383234	0	-2396.4	4830	28.08383234	
493	98.401	0	28.29341317	0	-2401.4	4840	28.29341317	
494	98.601	0	28.50299401	0	-2406.4	4850	28.50299401	
495	98.801	0	28.50299401	0	-2411.4	4860	28.50299401	
496	99.001	0	28.92215569	0	-2416.4	4870	28.92215569	
497	99.201	0	29.13173653	0	-2421.4	4880	29.13173653	
498	99.401	0	29.34131737	0	-2426.4	4890	29.34131737	
499	99.601	0	29.5508982	0	-2431.4	4900	29.5508982	
500	99.801	0	29.76047904	0	-2436.4	4910	29.76047904	
1 0
1 0 524031
-1
-1
-1
-1
-1
-1
-1
0
1 0.2 100 1 0 -1 0 1 0 0 0 0 1
1
Standard
8 0 -75 75 3 0 -0.00153 0.02883 -1 5 0 0 0 -1 -1 -1 -1 -1 1 0 1 0 1 3 3 3 0 1 0
0
8447552 
0
