CL4
180 0.2
Index
n

0 501 100 0 0 0 0 1 0 0 0 0 0 500 1 1
Zeit
t
s
0 100 50 0 1 0 0 1 0 0 0 0 0 0 1 1
Frequenz
f
Hz
0 2.5 1 0 3 0 0 1 500 0 0 0 0 0 1 1
6 0
0 1 0 1
1 0 0 1 1 0 5 0 0 0 0 0 0 0 0 2500 0 0 0 1 1139 116 297 140 0.5 0 0 1 0
Spannung
U_A1
V
-0.3 0.3 0.1 0 4 0 0 0 0 1 1 0 0 -0.00015 1 1
524031 -2.668120157 334.0718563 1
1 1 0 1 1 1 0 0 0 0 0 0 0 0 0 2500 0 0 0 1 989 208 297 140 0.5 0 0 1 2
Weg
s_B1
cm
0 150 50 0 1 0 0 0 0 1 1 0 0 44.64071856 1 1
10 1 -1 0
20 0 0 0 1 0 0 0 0 0 10 0 1 0 0 2500 0 0 0 0 50 50 297 140 0.5 0 0 1 0
neue Größe
f_1

0 100 50 0 1 0 0 1 0 0 0 0 0 0 1 1
10 1 -1 n*(-5)+63.6
20 1 0 0 1 0 0 0 0 0 10 0 1 0 0 2500 0 0 0 0 371 309 297 140 0.5 0 0 1 0
d_kalib
d_kalib

0 100 50 0 1 0 0 1 0 0 0 0 0 -2436.4 1 1
10 1 -1 -80+(n-1)*10
20 2 0 0 1 0 0 0 0 0 1 0 1 0 0 2500 0 0 0 0 454 573 297 140 0.5 0 0 1 0
gamma
gamma
Grad
-80 80 50 0 4 0 0 1 0 0 0 0 0 4910 1 1
10 1 -1 sB1
20 3 0 0 1 0 0 0 0 0 10 0 1 0 0 2500 0 0 0 1 415 132 297 140 0.5 0 0 1 0
alpha_tunnel
alpha
°
-75 75 50 0 1 0 0 1 0 0 0 0 0 44.64071856 1 1
8 500
1	0	0.00015	-80.26946108	0	58.6	-80	-80.26946108	
2	0.201	0	-80.47904192	0	53.6	-70	-80.47904192	
3	0.401	0.00015	-80.47904192	0	48.6	-60	-80.47904192	
4	0.602	0	-80.26946108	0	43.6	-50	-80.26946108	
5	0.801	0	-80.26946108	0	38.6	-40	-80.26946108	
6	1.002	0	-80.26946108	0	33.6	-30	-80.26946108	
7	1.21	0.00015	-80.26946108	0	28.6	-20	-80.26946108	
8	1.402	0.00015	-80.26946108	0	23.6	-10	-80.26946108	
9	1.61	0.00015	-80.26946108	0	18.6	0	-80.26946108	
10	1.818	0.00015	-80.26946108	0	13.6	10	-80.26946108	
11	2.01	0.00015	-79.8502994	0	8.6	20	-79.8502994	
12	2.218	0.00015	-79.43113772	0	3.6	30	-79.43113772	
13	2.426	0.0003	-78.80239521	0	-1.4	40	-78.80239521	
14	2.618	0.0003	-78.38323353	0	-6.4	50	-78.38323353	
15	2.826	0.00045	-77.96407186	0	-11.4	60	-77.96407186	
16	3.001	0.00045	-77.54491018	0	-16.4	70	-77.54491018	
17	3.201	0.00045	-77.33532934	0	-21.4	80	-77.33532934	
18	3.401	0.0003	-76.91616766	0	-26.4	90	-76.91616766	
19	3.601	0.00045	-76.70658683	0	-31.4	100	-76.70658683	
20	3.801	0.00045	-76.49700599	0	-36.4	110	-76.49700599	
21	4.001	0.00045	-76.28742515	0	-41.4	120	-76.28742515	
22	4.201	0.00045	-76.07784431	0	-46.4	130	-76.07784431	
23	4.401	0.0006	-75.86826347	0	-51.4	140	-75.86826347	
24	4.601	0.0006	-75.4491018	0	-56.4	150	-75.4491018	
25	4.801	0.0006	-75.23952096	0	-61.4	160	-75.23952096	
26	5.001	0.0006	-75.02994012	0	-66.4	170	-75.02994012	
27	5.201	0.00075	-74.82035928	0	-71.4	180	-74.82035928	
28	5.401	0.0006	-74.61077844	0	-76.4	190	-74.61077844	
29	5.609	0.00075	-74.4011976	0	-81.4	200	-74.4011976	
30	5.801	0.0009	-74.19161677	0	-86.4	210	-74.19161677	
31	6.009	0.0009	-73.98203593	0	-91.4	220	-73.98203593	
32	6.217	0.00105	-73.56287425	0	-96.4	230	-73.56287425	
33	6.409	0.00105	-73.35329341	0	-101.4	240	-73.35329341	
34	6.617	0.00135	-73.14371257	0	-106.4	250	-73.14371257	
35	6.825	0.0015	-72.93413174	0	-111.4	260	-72.93413174	
36	7.017	0.0015	-72.7245509	0	-116.4	270	-72.7245509	
37	7.225	0.0015	-72.51497006	0	-121.4	280	-72.51497006	
38	7.401	0.0015	-72.30538922	0	-126.4	290	-72.30538922	
39	7.601	0.0018	-72.30538922	0	-131.4	300	-72.30538922	
40	7.801	0.0018	-71.88622754	0	-136.4	310	-71.88622754	
41	8.001	0.00195	-71.88622754	0	-141.4	320	-71.88622754	
42	8.201	0.0021	-71.46706587	0	-146.4	330	-71.46706587	
43	8.401	0.0021	-71.46706587	0	-151.4	340	-71.46706587	
44	8.601	0.00225	-71.25748503	0	-156.4	350	-71.25748503	
45	8.801	0.00255	-71.04790419	0	-161.4	360	-71.04790419	
46	9.001	0.0027	-70.83832335	0	-166.4	370	-70.83832335	
47	9.201	0.00285	-70.41916168	0	-171.4	380	-70.41916168	
48	9.401	0.00285	-70.20958084	0	-176.4	390	-70.20958084	
49	9.601	0.00315	-70	0	-181.4	400	-70	
50	9.801	0.00315	-69.79041916	0	-186.4	410	-69.79041916	
51	10.001	0.00315	-69.58083832	0	-191.4	420	-69.58083832	
52	10.201	0.0033	-69.37125749	0	-196.4	430	-69.37125749	
53	10.401	0.00345	-69.16167665	0	-201.4	440	-69.16167665	
54	10.601	0.00375	-68.95209581	0	-206.4	450	-68.95209581	
55	10.801	0.00375	-68.74251497	0	-211.4	460	-68.74251497	
56	11.001	0.00375	-68.32335329	0	-216.4	470	-68.32335329	
57	11.208	0.00405	-68.11377246	0	-221.4	480	-68.11377246	
58	11.401	0.0042	-67.90419162	0	-226.4	490	-67.90419162	
59	11.608	0.00435	-67.69461078	0	-231.4	500	-67.69461078	
60	11.815	0.0045	-67.48502994	0	-236.4	510	-67.48502994	
61	12.007	0.00465	-67.2754491	0	-241.4	520	-67.2754491	
62	12.215	0.00495	-67.06586826	0	-246.4	530	-67.06586826	
63	12.423	0.0051	-66.85628743	0	-251.4	540	-66.85628743	
64	12.631	0.0054	-66.43712575	0	-256.4	550	-66.43712575	
65	12.823	0.00555	-66.22754491	0	-261.4	560	-66.22754491	
66	13.001	0.00585	-66.01796407	0	-266.4	570	-66.01796407	
67	13.201	0.00585	-65.80838323	0	-271.4	580	-65.80838323	
68	13.401	0.0063	-65.5988024	0	-276.4	590	-65.5988024	
69	13.601	0.00645	-65.38922156	0	-281.4	600	-65.38922156	
70	13.801	0.0066	-64.97005988	0	-286.4	610	-64.97005988	
71	14.001	0.0069	-64.76047904	0	-291.4	620	-64.76047904	
72	14.201	0.0072	-64.5508982	0	-296.4	630	-64.5508982	
73	14.401	0.0075	-64.34131737	0	-301.4	640	-64.34131737	
74	14.601	0.00735	-64.13173653	0	-306.4	650	-64.13173653	
75	14.801	0.00735	-63.92215569	0	-311.4	660	-63.92215569	
76	15.006	0.0075	-63.50299401	0	-316.4	670	-63.50299401	
77	15.207	0.0075	-63.29341317	0	-321.4	680	-63.29341317	
78	15.415	0.0075	-63.08383234	0	-326.4	690	-63.08383234	
79	15.622	0.00705	-62.66467066	0	-331.4	700	-62.66467066	
80	15.814	0.0066	-62.45508982	0	-336.4	710	-62.45508982	
81	16.022	0.0066	-62.24550898	0	-341.4	720	-62.24550898	
82	16.23	0.00615	-62.03592814	0	-346.4	730	-62.03592814	
83	16.401	0.006	-61.82634731	0	-351.4	740	-61.82634731	
84	16.601	0.0054	-61.61676647	0	-356.4	750	-61.61676647	
85	16.801	0.0051	-61.40718563	0	-361.4	760	-61.40718563	
86	17.001	0.00495	-60.98802395	0	-366.4	770	-60.98802395	
87	17.201	0.0048	-60.77844311	0	-371.4	780	-60.77844311	
88	17.401	0.00435	-60.56886228	0	-376.4	790	-60.56886228	
89	17.601	0.0042	-60.35928144	0	-381.4	800	-60.35928144	
90	17.801	0.0039	-60.1497006	0	-386.4	810	-60.1497006	
91	18.001	0.00375	-59.94011976	0	-391.4	820	-59.94011976	
92	18.201	0.00345	-59.73053892	0	-396.4	830	-59.73053892	
93	18.401	0.00315	-59.52095808	0	-401.4	840	-59.52095808	
94	18.601	0.003	-59.31137725	0	-406.4	850	-59.31137725	
95	18.801	0.00285	-59.10179641	0	-411.4	860	-59.10179641	
96	19.001	0.0027	-58.89221557	0	-416.4	870	-58.89221557	
97	19.201	0.00255	-58.68263473	0	-421.4	880	-58.68263473	
98	19.401	0.0024	-58.47305389	0	-426.4	890	-58.47305389	
99	19.601	0.0024	-58.26347305	0	-431.4	900	-58.26347305	
100	19.801	0.0021	-57.84431138	0	-436.4	910	-57.84431138	
101	20.005	0.0021	-57.63473054	0	-441.4	920	-57.63473054	
102	20.213	0.0021	-57.4251497	0	-446.4	930	-57.4251497	
103	20.405	0.00195	-57.4251497	0	-451.4	940	-57.4251497	
104	20.613	0.0018	-57.00598802	0	-456.4	950	-57.00598802	
105	20.821	0.00165	-56.79640719	0	-461.4	960	-56.79640719	
106	21.013	0.00165	-56.58682635	0	-466.4	970	-56.58682635	
107	21.221	0.00165	-56.37724551	0	-471.4	980	-56.37724551	
108	21.429	0.00165	-56.16766467	0	-476.4	990	-56.16766467	
109	21.621	0.0015	-55.95808383	0	-481.4	1000	-55.95808383	
110	21.829	0.00135	-55.74850299	0	-486.4	1010	-55.74850299	
111	22.001	0.0012	-55.53892216	0	-491.4	1020	-55.53892216	
112	22.201	0.00135	-55.32934132	0	-496.4	1030	-55.32934132	
113	22.401	0.0012	-54.91017964	0	-501.4	1040	-54.91017964	
114	22.601	0.00105	-54.91017964	0	-506.4	1050	-54.91017964	
115	22.801	0.00105	-54.7005988	0	-511.4	1060	-54.7005988	
116	23.001	0.00105	-54.49101796	0	-516.4	1070	-54.49101796	
117	23.201	0.00105	-54.28143713	0	-521.4	1080	-54.28143713	
118	23.401	0.0009	-54.07185629	0	-526.4	1090	-54.07185629	
119	23.601	0.0009	-53.65269461	0	-531.4	1100	-53.65269461	
120	23.801	0.00075	-53.44311377	0	-536.4	1110	-53.44311377	
121	24.001	0.00075	-53.23353293	0	-541.4	1120	-53.23353293	
122	24.201	0.0006	-53.0239521	0	-546.4	1130	-53.0239521	
123	24.404	0.0006	-52.81437126	0	-551.4	1140	-52.81437126	
124	24.612	0.0006	-52.60479042	0	-556.4	1150	-52.60479042	
125	24.804	0.00045	-52.39520958	0	-561.4	1160	-52.39520958	
126	25.012	0.00045	-52.18562874	0	-566.4	1170	-52.18562874	
127	25.22	0.00045	-51.9760479	0	-571.4	1180	-51.9760479	
128	25.412	0.00045	-51.76646707	0	-576.4	1190	-51.76646707	
129	25.62	0.0003	-51.55688623	0	-581.4	1200	-51.55688623	
130	25.828	0.0003	-51.34730539	0	-586.4	1210	-51.34730539	
131	26.02	0.00015	-51.13772455	0	-591.4	1220	-51.13772455	
132	26.228	0.00015	-50.92814371	0	-596.4	1230	-50.92814371	
133	26.401	0.00015	-50.50898204	0	-601.4	1240	-50.50898204	
134	26.601	0	-50.2994012	0	-606.4	1250	-50.2994012	
135	26.801	0	-50.08982036	0	-611.4	1260	-50.08982036	
136	27.001	0	-49.88023952	0	-616.4	1270	-49.88023952	
137	27.201	0	-49.67065868	0	-621.4	1280	-49.67065868	
138	27.401	0	-49.46107784	0	-626.4	1290	-49.46107784	
139	27.601	0	-49.25149701	0	-631.4	1300	-49.25149701	
140	27.801	0	-48.83233533	0	-636.4	1310	-48.83233533	
141	28.001	0	-48.62275449	0	-641.4	1320	-48.62275449	
142	28.201	0	-48.41317365	0	-646.4	1330	-48.41317365	
143	28.403	0	-48.20359281	0	-651.4	1340	-48.20359281	
144	28.601	0	-47.99401198	0	-656.4	1350	-47.99401198	
145	28.803	0	-47.5748503	0	-661.4	1360	-47.5748503	
146	29.011	0	-47.5748503	0	-666.4	1370	-47.5748503	
147	29.203	0	-47.36526946	0	-671.4	1380	-47.36526946	
148	29.411	0	-47.15568862	0	-676.4	1390	-47.15568862	
149	29.619	0	-46.94610778	0	-681.4	1400	-46.94610778	
150	29.811	0	-46.52694611	0	-686.4	1410	-46.52694611	
151	30.019	0	-46.52694611	0	-691.4	1420	-46.52694611	
152	30.227	0	-46.10778443	0	-696.4	1430	-46.10778443	
153	30.419	0	-45.89820359	0	-701.4	1440	-45.89820359	
154	30.628	0	-45.68862275	0	-706.4	1450	-45.68862275	
155	30.835	0	-45.68862275	0	-711.4	1460	-45.68862275	
156	31.001	0	-45.68862275	0	-716.4	1470	-45.68862275	
157	31.201	0	-45.05988024	0	-721.4	1480	-45.05988024	
158	31.401	0	-45.05988024	0	-726.4	1490	-45.05988024	
159	31.601	0	-44.64071856	0	-731.4	1500	-44.64071856	
160	31.801	0	-44.64071856	0	-736.4	1510	-44.64071856	
161	32.001	0	-44.64071856	0	-741.4	1520	-44.64071856	
162	32.201	0	-44.43113772	0	-746.4	1530	-44.43113772	
163	32.401	0	-44.22155689	0	-751.4	1540	-44.22155689	
164	32.601	0	-44.01197605	0	-756.4	1550	-44.01197605	
165	32.802	0	-43.80239521	0	-761.4	1560	-43.80239521	
166	33.001	0	-43.59281437	0	-766.4	1570	-43.59281437	
167	33.202	0	-43.38323353	0	-771.4	1580	-43.38323353	
168	33.41	0	-43.17365269	0	-776.4	1590	-43.17365269	
169	33.602	0	-43.17365269	0	-781.4	1600	-43.17365269	
170	33.81	0	-42.96407186	0	-786.4	1610	-42.96407186	
171	34.018	0	-42.75449102	0	-791.4	1620	-42.75449102	
172	34.21	0	-42.54491018	0	-796.4	1630	-42.54491018	
173	34.418	0	-42.33532934	0	-801.4	1640	-42.33532934	
174	34.626	0	-41.91616766	0	-806.4	1650	-41.91616766	
175	34.818	0	-41.70658683	0	-811.4	1660	-41.70658683	
176	35.026	0	-41.70658683	0	-816.4	1670	-41.70658683	
177	35.234	0	-41.49700599	0	-821.4	1680	-41.49700599	
178	35.401	0	-41.28742515	0	-826.4	1690	-41.28742515	
179	35.601	-0.00015	-41.07784431	0	-831.4	1700	-41.07784431	
180	35.801	0	-40.86826347	0	-836.4	1710	-40.86826347	
181	36.001	0	-40.65868263	0	-841.4	1720	-40.65868263	
182	36.201	0	-40.4491018	0	-846.4	1730	-40.4491018	
183	36.401	0	-40.23952096	0	-851.4	1740	-40.23952096	
184	36.601	0	-40.23952096	0	-856.4	1750	-40.23952096	
185	36.801	0	-39.82035928	0	-861.4	1760	-39.82035928	
186	37.001	0	-39.61077844	0	-866.4	1770	-39.61077844	
187	37.201	0	-39.4011976	0	-871.4	1780	-39.4011976	
188	37.401	0	-39.19161677	0	-876.4	1790	-39.19161677	
189	37.601	0	-38.98203593	0	-881.4	1800	-38.98203593	
190	37.809	0	-38.77245509	0	-886.4	1810	-38.77245509	
191	38.001	0	-38.56287425	0	-891.4	1820	-38.56287425	
192	38.209	0	-38.35329341	0	-896.4	1830	-38.35329341	
193	38.417	0	-38.14371257	0	-901.4	1840	-38.14371257	
194	38.609	0	-37.93413174	0	-906.4	1850	-37.93413174	
195	38.817	0	-37.7245509	0	-911.4	1860	-37.7245509	
196	39.025	0	-37.51497006	0	-916.4	1870	-37.51497006	
197	39.217	0	-37.30538922	0	-921.4	1880	-37.30538922	
198	39.424	0	-37.09580838	0	-926.4	1890	-37.09580838	
199	39.632	0	-36.88622754	0	-931.4	1900	-36.88622754	
200	39.801	0	-36.67664671	0	-936.4	1910	-36.67664671	
201	40.001	0	-36.46706587	0	-941.4	1920	-36.46706587	
202	40.201	0	-36.25748503	0	-946.4	1930	-36.25748503	
203	40.401	0	-36.04790419	0	-951.4	1940	-36.04790419	
204	40.601	0	-35.83832335	0	-956.4	1950	-35.83832335	
205	40.801	0	-35.62874251	0	-961.4	1960	-35.62874251	
206	41.001	0	-35.41916168	0	-966.4	1970	-35.41916168	
207	41.201	0	-35.20958084	0	-971.4	1980	-35.20958084	
208	41.401	0	-35	0	-976.4	1990	-35	
209	41.601	0	-34.79041916	0	-981.4	2000	-34.79041916	
210	41.801	0	-34.58083832	0	-986.4	2010	-34.58083832	
211	42.001	0	-34.37125749	0	-991.4	2020	-34.37125749	
212	42.208	0	-34.16167665	0	-996.4	2030	-34.16167665	
213	42.401	0	-33.95209581	0	-1001.4	2040	-33.95209581	
214	42.608	0	-33.74251497	0	-1006.4	2050	-33.74251497	
215	42.816	0	-33.53293413	0	-1011.4	2060	-33.53293413	
216	43.008	0	-33.32335329	0	-1016.4	2070	-33.32335329	
217	43.216	0	-33.11377246	0	-1021.4	2080	-33.11377246	
218	43.423	0	-32.90419162	0	-1026.4	2090	-32.90419162	
219	43.615	0	-32.69461078	0	-1031.4	2100	-32.69461078	
220	43.823	0	-32.48502994	0	-1036.4	2110	-32.48502994	
221	44.031	0	-32.2754491	0	-1041.4	2120	-32.2754491	
222	44.223	0	-32.06586826	0	-1046.4	2130	-32.06586826	
223	44.401	0	-31.85628743	0	-1051.4	2140	-31.85628743	
224	44.601	0	-31.64670659	0	-1056.4	2150	-31.64670659	
225	44.801	0	-31.43712575	0	-1061.4	2160	-31.43712575	
226	45.001	0	-31.22754491	0	-1066.4	2170	-31.22754491	
227	45.201	0	-31.01796407	0	-1071.4	2180	-31.01796407	
228	45.401	0	-30.80838323	0	-1076.4	2190	-30.80838323	
229	45.601	0	-30.5988024	0	-1081.4	2200	-30.5988024	
230	45.801	0	-30.38922156	0	-1086.4	2210	-30.38922156	
231	46.001	0	-30.17964072	0	-1091.4	2220	-30.17964072	
232	46.201	0	-29.97005988	0	-1096.4	2230	-29.97005988	
233	46.401	0	-29.76047904	0	-1101.4	2240	-29.76047904	
234	46.607	0	-29.5508982	0	-1106.4	2250	-29.5508982	
235	46.801	0	-29.34131737	0	-1111.4	2260	-29.34131737	
236	47.007	0	-29.34131737	0	-1116.4	2270	-29.34131737	
237	47.214	0	-29.13173653	0	-1121.4	2280	-29.13173653	
238	47.406	0	-28.92215569	0	-1126.4	2290	-28.92215569	
239	47.615	0	-28.71257485	0	-1131.4	2300	-28.71257485	
240	47.822	0	-28.50299401	0	-1136.4	2310	-28.50299401	
241	48.014	0	-28.29341317	0	-1141.4	2320	-28.29341317	
242	48.222	0	-28.08383234	0	-1146.4	2330	-28.08383234	
243	48.43	0	-28.08383234	0	-1151.4	2340	-28.08383234	
244	48.622	0	-27.8742515	0	-1156.4	2350	-27.8742515	
245	48.801	0	-27.66467066	0	-1161.4	2360	-27.66467066	
246	49.001	0	-27.45508982	0	-1166.4	2370	-27.45508982	
247	49.201	0	-27.24550898	0	-1171.4	2380	-27.24550898	
248	49.401	0	-27.03592814	0	-1176.4	2390	-27.03592814	
249	49.601	0	-26.82634731	0	-1181.4	2400	-26.82634731	
250	49.801	0	-26.82634731	0	-1186.4	2410	-26.82634731	
251	50.001	0	-26.40718563	0	-1191.4	2420	-26.40718563	
252	50.201	0	-26.19760479	0	-1196.4	2430	-26.19760479	
253	50.401	0	-25.98802395	0	-1201.4	2440	-25.98802395	
254	50.601	0	-25.98802395	0	-1206.4	2450	-25.98802395	
255	50.801	0	-25.77844311	0	-1211.4	2460	-25.77844311	
256	51.006	0	-25.56886228	0	-1216.4	2470	-25.56886228	
257	51.201	0	-25.1497006	0	-1221.4	2480	-25.1497006	
258	51.405	0	-24.94011976	0	-1226.4	2490	-24.94011976	
259	51.613	0	-24.73053892	0	-1231.4	2500	-24.73053892	
260	51.805	0	-24.52095808	0	-1236.4	2510	-24.52095808	
261	52.013	0	-24.31137725	0	-1241.4	2520	-24.31137725	
262	52.221	0	-24.31137725	0	-1246.4	2530	-24.31137725	
263	52.413	0	-24.10179641	0	-1251.4	2540	-24.10179641	
264	52.621	0	-23.68263473	0	-1256.4	2550	-23.68263473	
265	52.829	0	-23.47305389	0	-1261.4	2560	-23.47305389	
266	53.021	0	-23.26347305	0	-1266.4	2570	-23.26347305	
267	53.201	0	-23.05389222	0	-1271.4	2580	-23.05389222	
268	53.401	0	-22.84431138	0	-1276.4	2590	-22.84431138	
269	53.601	0	-22.63473054	0	-1281.4	2600	-22.63473054	
270	53.801	0	-22.4251497	0	-1286.4	2610	-22.4251497	
271	54.001	0	-22.21556886	0	-1291.4	2620	-22.21556886	
272	54.201	0.00015	-22.00598802	0	-1296.4	2630	-22.00598802	
273	54.401	0.00015	-22.00598802	0	-1301.4	2640	-22.00598802	
274	54.601	0.00015	-21.58682635	0	-1306.4	2650	-21.58682635	
275	54.801	0.00015	-21.58682635	0	-1311.4	2660	-21.58682635	
276	55.001	0	-21.16766467	0	-1316.4	2670	-21.16766467	
277	55.201	0	-21.16766467	0	-1321.4	2680	-21.16766467	
278	55.404	0	-20.95808383	0	-1326.4	2690	-20.95808383	
279	55.601	0	-20.74850299	0	-1331.4	2700	-20.74850299	
280	55.804	0	-20.53892216	0	-1336.4	2710	-20.53892216	
281	56.012	0	-20.32934132	0	-1341.4	2720	-20.32934132	
282	56.204	0	-20.11976048	0	-1346.4	2730	-20.11976048	
283	56.412	0	-19.91017964	0	-1351.4	2740	-19.91017964	
284	56.62	0	-19.49101796	0	-1356.4	2750	-19.49101796	
285	56.812	0	-19.49101796	0	-1361.4	2760	-19.49101796	
286	57.02	0	-19.28143713	0	-1366.4	2770	-19.28143713	
287	57.228	0	-18.86227545	0	-1371.4	2780	-18.86227545	
288	57.42	0	-18.86227545	0	-1376.4	2790	-18.86227545	
289	57.601	0	-18.65269461	0	-1381.4	2800	-18.65269461	
290	57.801	0	-18.44311377	0	-1386.4	2810	-18.44311377	
291	58.001	0.00015	-18.23353293	0	-1391.4	2820	-18.23353293	
292	58.201	0.0003	-18.0239521	0	-1396.4	2830	-18.0239521	
293	58.401	0.00045	-17.81437126	0	-1401.4	2840	-17.81437126	
294	58.601	0.00045	-17.60479042	0	-1406.4	2850	-17.60479042	
295	58.801	0.0006	-17.39520958	0	-1411.4	2860	-17.39520958	
296	59.001	0.0009	-17.18562874	0	-1416.4	2870	-17.18562874	
297	59.201	0.00105	-16.9760479	0	-1421.4	2880	-16.9760479	
298	59.401	0.0012	-16.76646707	0	-1426.4	2890	-16.76646707	
299	59.601	0.0015	-16.34730539	0	-1431.4	2900	-16.34730539	
300	59.803	0.00165	-16.13772455	0	-1436.4	2910	-16.13772455	
301	60.001	0.00195	-15.92814371	0	-1441.4	2920	-15.92814371	
302	60.203	0.00225	-15.71856287	0	-1446.4	2930	-15.71856287	
303	60.411	0.0024	-15.71856287	0	-1451.4	2940	-15.71856287	
304	60.603	0.0027	-15.2994012	0	-1456.4	2950	-15.2994012	
305	60.811	0.003	-15.08982036	0	-1461.4	2960	-15.08982036	
306	61.019	0.00315	-14.88023952	0	-1466.4	2970	-14.88023952	
307	61.211	0.0033	-14.67065868	0	-1471.4	2980	-14.67065868	
308	61.419	0.0036	-14.67065868	0	-1476.4	2990	-14.67065868	
309	61.627	0.00375	-14.46107784	0	-1481.4	3000	-14.46107784	
310	61.819	0.0039	-14.25149701	0	-1486.4	3010	-14.25149701	
311	62.027	0.0042	-14.04191617	0	-1491.4	3020	-14.04191617	
312	62.201	0.0045	-13.83233533	0	-1496.4	3030	-13.83233533	
313	62.401	0.00465	-13.62275449	0	-1501.4	3040	-13.62275449	
314	62.601	0.0048	-13.41317365	0	-1506.4	3050	-13.41317365	
315	62.801	0.00495	-13.20359281	0	-1511.4	3060	-13.20359281	
316	63.001	0.00495	-12.99401198	0	-1516.4	3070	-12.99401198	
317	63.201	0.00525	-12.78443114	0	-1521.4	3080	-12.78443114	
318	63.401	0.0054	-12.78443114	0	-1526.4	3090	-12.78443114	
319	63.601	0.00555	-12.5748503	0	-1531.4	3100	-12.5748503	
320	63.801	0.00555	-12.36526946	0	-1536.4	3110	-12.36526946	
321	64.001	0.0057	-12.15568862	0	-1541.4	3120	-12.15568862	
322	64.202	0.0057	-11.94610778	0	-1546.4	3130	-11.94610778	
323	64.401	0.0057	-11.73652695	0	-1551.4	3140	-11.73652695	
324	64.602	0.00555	-11.52694611	0	-1556.4	3150	-11.52694611	
325	64.81	0.00555	-11.31736527	0	-1561.4	3160	-11.31736527	
326	65.002	0.00555	-11.10778443	0	-1566.4	3170	-11.10778443	
327	65.21	0.00555	-10.89820359	0	-1571.4	3180	-10.89820359	
328	65.418	0.00555	-10.68862275	0	-1576.4	3190	-10.68862275	
329	65.61	0.0054	-10.47904192	0	-1581.4	3200	-10.47904192	
330	65.818	0.0054	-10.26946108	0	-1586.4	3210	-10.26946108	
331	66.026	0.0054	-10.05988024	0	-1591.4	3220	-10.05988024	
332	66.218	0.0054	-10.05988024	0	-1596.4	3230	-10.05988024	
333	66.426	0.0054	-9.850299401	0	-1601.4	3240	-9.850299401	
334	66.601	0.00525	-9.431137725	0	-1606.4	3250	-9.431137725	
335	66.801	0.0051	-9.221556886	0	-1611.4	3260	-9.221556886	
336	67.001	0.0051	-9.011976048	0	-1616.4	3270	-9.011976048	
337	67.201	0.00525	-8.80239521	0	-1621.4	3280	-8.80239521	
338	67.401	0.0051	-8.592814371	0	-1626.4	3290	-8.592814371	
339	67.601	0.0051	-8.383233533	0	-1631.4	3300	-8.383233533	
340	67.801	0.0051	-8.173652695	0	-1636.4	3310	-8.173652695	
341	68.001	0.0051	-7.964071856	0	-1641.4	3320	-7.964071856	
342	68.201	0.00525	-7.754491018	0	-1646.4	3330	-7.754491018	
343	68.401	0.00525	-7.54491018	0	-1651.4	3340	-7.54491018	
344	68.601	0.0054	-7.335329341	0	-1656.4	3350	-7.335329341	
345	68.801	0.0057	-7.125748503	0	-1661.4	3360	-7.125748503	
346	69.001	0.006	-6.916167665	0	-1666.4	3370	-6.916167665	
347	69.209	0.0063	-6.706586826	0	-1671.4	3380	-6.706586826	
348	69.401	0.0069	-6.497005988	0	-1676.4	3390	-6.497005988	
349	69.609	0.0072	-6.28742515	0	-1681.4	3400	-6.28742515	
350	69.817	0.0081	-6.077844311	0	-1686.4	3410	-6.077844311	
351	70.009	0.0087	-5.868263473	0	-1691.4	3420	-5.868263473	
352	70.217	0.0093	-5.658682635	0	-1696.4	3430	-5.658682635	
353	70.425	0.0102	-5.449101796	0	-1701.4	3440	-5.449101796	
354	70.617	0.0108	-5.239520958	0	-1706.4	3450	-5.239520958	
355	70.825	0.0117	-5.02994012	0	-1711.4	3460	-5.02994012	
356	71.032	0.01275	-4.610778443	0	-1716.4	3470	-4.610778443	
357	71.201	0.01365	-4.401197605	0	-1721.4	3480	-4.401197605	
358	71.401	0.0147	-4.191616766	0	-1726.4	3490	-4.191616766	
359	71.601	0.01575	-3.982035928	0	-1731.4	3500	-3.982035928	
360	71.801	0.0168	-3.77245509	0	-1736.4	3510	-3.77245509	
361	72.001	0.01785	-3.562874251	0	-1741.4	3520	-3.562874251	
362	72.201	0.01875	-3.353293413	0	-1746.4	3530	-3.353293413	
363	72.401	0.01965	-3.143712575	0	-1751.4	3540	-3.143712575	
364	72.601	0.0207	-2.934131737	0	-1756.4	3550	-2.934131737	
365	72.801	0.02175	-2.724550898	0	-1761.4	3560	-2.724550898	
366	73.001	0.0225	-2.51497006	0	-1766.4	3570	-2.51497006	
367	73.201	0.0234	-2.305389222	0	-1771.4	3580	-2.305389222	
368	73.401	0.02445	-2.095808383	0	-1776.4	3590	-2.095808383	
369	73.601	0.02505	-1.886227545	0	-1781.4	3600	-1.886227545	
370	73.801	0.02565	-1.676646707	0	-1786.4	3610	-1.676646707	
371	74.001	0.02625	-1.467065868	0	-1791.4	3620	-1.467065868	
372	74.201	0.02685	-1.25748503	0	-1796.4	3630	-1.25748503	
373	74.401	0.02685	-1.047904192	0	-1801.4	3640	-1.047904192	
374	74.601	0.0273	-0.8383233533	0	-1806.4	3650	-0.8383233533	
375	74.808	0.02745	-0.628742515	0	-1811.4	3660	-0.628742515	
376	75.001	0.02745	-0.4191616766	0	-1816.4	3670	-0.4191616766	
377	75.207	0.02745	-0.2095808383	0	-1821.4	3680	-0.2095808383	
378	75.415	0.0273	-2.051137038E-14	0	-1826.4	3690	-2.051137038E-14	
379	75.623	0.02685	0.2095808383	0	-1831.4	3700	0.2095808383	
380	75.815	0.02655	0.4191616766	0	-1836.4	3710	0.4191616766	
381	76.023	0.02595	0.628742515	0	-1841.4	3720	0.628742515	
382	76.231	0.02535	0.8383233533	0	-1846.4	3730	0.8383233533	
383	76.423	0.02475	1.047904192	0	-1851.4	3740	1.047904192	
384	76.601	0.02475	1.25748503	0	-1856.4	3750	1.25748503	
385	76.801	0.02385	1.25748503	0	-1861.4	3760	1.25748503	
386	77.001	0.02325	1.467065868	0	-1866.4	3770	1.467065868	
387	77.201	0.0228	1.467065868	0	-1871.4	3780	1.467065868	
388	77.401	0.02175	1.676646707	0	-1876.4	3790	1.676646707	
389	77.601	0.02085	1.886227545	0	-1881.4	3800	1.886227545	
390	77.801	0.0201	2.095808383	0	-1886.4	3810	2.095808383	
391	78.001	0.0189	2.305389222	0	-1891.4	3820	2.305389222	
392	78.201	0.01815	2.51497006	0	-1896.4	3830	2.51497006	
393	78.401	0.01755	2.724550898	0	-1901.4	3840	2.724550898	
394	78.601	0.0165	2.934131737	0	-1906.4	3850	2.934131737	
395	78.801	0.0156	3.143712575	0	-1911.4	3860	3.143712575	
396	79.001	0.01455	3.353293413	0	-1916.4	3870	3.353293413	
397	79.201	0.0138	3.562874251	0	-1921.4	3880	3.562874251	
398	79.401	0.01275	3.77245509	0	-1926.4	3890	3.77245509	
399	79.601	0.01185	3.982035928	0	-1931.4	3900	3.982035928	
400	79.801	0.0111	4.191616766	0	-1936.4	3910	4.191616766	
401	80.006	0.0102	4.401197605	0	-1941.4	3920	4.401197605	
402	80.201	0.00945	4.610778443	0	-1946.4	3930	4.610778443	
403	80.406	0.0084	4.610778443	0	-1951.4	3940	4.610778443	
404	80.614	0.0078	4.820359281	0	-1956.4	3950	4.820359281	
405	80.806	0.00705	5.02994012	0	-1961.4	3960	5.02994012	
406	81.014	0.00645	5.239520958	0	-1966.4	3970	5.239520958	
407	81.222	0.00585	5.449101796	0	-1971.4	3980	5.449101796	
408	81.414	0.00525	5.868263473	0	-1976.4	3990	5.868263473	
409	81.622	0.00465	5.868263473	0	-1981.4	4000	5.868263473	
410	81.83	0.0042	6.077844311	0	-1986.4	4010	6.077844311	
411	82.022	0.0039	6.28742515	0	-1991.4	4020	6.28742515	
412	82.201	0.0036	6.497005988	0	-1996.4	4030	6.497005988	
413	82.401	0.00315	6.706586826	0	-2001.4	4040	6.706586826	
414	82.601	0.003	7.125748503	0	-2006.4	4050	7.125748503	
415	82.801	0.00285	7.335329341	0	-2011.4	4060	7.335329341	
416	83.001	0.00285	7.54491018	0	-2016.4	4070	7.54491018	
417	83.201	0.0027	7.754491018	0	-2021.4	4080	7.754491018	
418	83.401	0.0027	7.964071856	0	-2026.4	4090	7.964071856	
419	83.601	0.0027	7.964071856	0	-2031.4	4100	7.964071856	
420	83.801	0.00285	8.383233533	0	-2036.4	4110	8.383233533	
421	84.001	0.00285	8.592814371	0	-2041.4	4120	8.592814371	
422	84.201	0.0027	8.80239521	0	-2046.4	4130	8.80239521	
423	84.405	0.0027	9.011976048	0	-2051.4	4140	9.011976048	
424	84.601	0.00285	9.221556886	0	-2056.4	4150	9.221556886	
425	84.805	0.00285	9.431137725	0	-2061.4	4160	9.431137725	
426	85.013	0.00285	9.850299401	0	-2066.4	4170	9.850299401	
427	85.221	0.00285	10.05988024	0	-2071.4	4180	10.05988024	
428	85.429	0.00285	10.05988024	0	-2076.4	4190	10.05988024	
429	85.601	0.0027	10.26946108	0	-2081.4	4200	10.26946108	
430	85.801	0.0027	10.47904192	0	-2086.4	4210	10.47904192	
431	86.001	0.00255	10.89820359	0	-2091.4	4220	10.89820359	
432	86.201	0.00255	11.10778443	0	-2096.4	4230	11.10778443	
433	86.402	0.0024	11.31736527	0	-2101.4	4240	11.31736527	
434	86.601	0.00225	11.52694611	0	-2106.4	4250	11.52694611	
435	86.801	0.0021	11.52694611	0	-2111.4	4260	11.52694611	
436	87.001	0.00195	11.94610778	0	-2116.4	4270	11.94610778	
437	87.201	0.0018	12.15568862	0	-2121.4	4280	12.15568862	
438	87.401	0.00165	12.36526946	0	-2126.4	4290	12.36526946	
439	87.601	0.0015	12.5748503	0	-2131.4	4300	12.5748503	
440	87.801	0.0015	12.78443114	0	-2136.4	4310	12.78443114	
441	88.004	0.00135	12.99401198	0	-2141.4	4320	12.99401198	
442	88.212	0.00105	13.20359281	0	-2146.4	4330	13.20359281	
443	88.404	0.0009	13.41317365	0	-2151.4	4340	13.41317365	
444	88.612	0.00075	13.62275449	0	-2156.4	4350	13.62275449	
445	88.82	0.00075	13.83233533	0	-2161.4	4360	13.83233533	
446	89.012	0.0006	14.04191617	0	-2166.4	4370	14.04191617	
447	89.22	0.00045	14.25149701	0	-2171.4	4380	14.25149701	
448	89.428	0.0003	14.46107784	0	-2176.4	4390	14.46107784	
449	89.62	0.0003	14.67065868	0	-2181.4	4400	14.67065868	
450	89.828	0.00015	14.88023952	0	-2186.4	4410	14.88023952	
451	90.001	0	15.08982036	0	-2191.4	4420	15.08982036	
452	90.201	0	15.50898204	0	-2196.4	4430	15.50898204	
453	90.401	0	15.71856287	0	-2201.4	4440	15.71856287	
454	90.601	0	15.92814371	0	-2206.4	4450	15.92814371	
455	90.801	0	15.92814371	0	-2211.4	4460	15.92814371	
456	91.001	0	16.34730539	0	-2216.4	4470	16.34730539	
457	91.201	0	16.55688623	0	-2221.4	4480	16.55688623	
458	91.401	0	16.76646707	0	-2226.4	4490	16.76646707	
459	91.601	0	16.9760479	0	-2231.4	4500	16.9760479	
460	91.801	0	17.18562874	0	-2236.4	4510	17.18562874	
461	92.003	0	17.39520958	0	-2241.4	4520	17.39520958	
462	92.201	0	17.60479042	0	-2246.4	4530	17.60479042	
463	92.403	0	17.81437126	0	-2251.4	4540	17.81437126	
464	92.611	0	18.0239521	0	-2256.4	4550	18.0239521	
465	92.803	0	18.23353293	0	-2261.4	4560	18.23353293	
466	93.011	0	18.44311377	0	-2266.4	4570	18.44311377	
467	93.219	0.00015	18.65269461	0	-2271.4	4580	18.65269461	
468	93.411	0.00015	18.86227545	0	-2276.4	4590	18.86227545	
469	93.619	0.00015	19.07185629	0	-2281.4	4600	19.07185629	
470	93.827	0.00015	19.28143713	0	-2286.4	4610	19.28143713	
471	94.019	0.00015	19.7005988	0	-2291.4	4620	19.7005988	
472	94.227	0.00015	19.91017964	0	-2296.4	4630	19.91017964	
473	94.435	0.00015	20.11976048	0	-2301.4	4640	20.11976048	
474	94.601	0.00015	20.32934132	0	-2306.4	4650	20.32934132	
475	94.801	0.00015	20.53892216	0	-2311.4	4660	20.53892216	
476	95.001	0.00015	20.74850299	0	-2316.4	4670	20.74850299	
477	95.201	0.00015	20.95808383	0	-2321.4	4680	20.95808383	
478	95.401	0.00015	21.16766467	0	-2326.4	4690	21.16766467	
479	95.601	0.00015	21.37724551	0	-2331.4	4700	21.37724551	
480	95.801	0.00015	21.58682635	0	-2336.4	4710	21.58682635	
481	96.001	0.00015	21.79640719	0	-2341.4	4720	21.79640719	
482	96.201	0	22.00598802	0	-2346.4	4730	22.00598802	
483	96.401	0	22.4251497	0	-2351.4	4740	22.4251497	
484	96.601	0	22.63473054	0	-2356.4	4750	22.63473054	
485	96.802	0	22.84431138	0	-2361.4	4760	22.84431138	
486	97.01	0	23.05389222	0	-2366.4	4770	23.05389222	
487	97.202	0	23.26347305	0	-2371.4	4780	23.26347305	
488	97.41	0	23.47305389	0	-2376.4	4790	23.47305389	
489	97.618	0	23.89221557	0	-2381.4	4800	23.89221557	
490	97.81	0	24.10179641	0	-2386.4	4810	24.10179641	
491	98.018	0	24.31137725	0	-2391.4	4820	24.31137725	
492	98.226	0	24.52095808	0	-2396.4	4830	24.52095808	
493	98.418	0	24.73053892	0	-2401.4	4840	24.73053892	
494	98.626	0	24.94011976	0	-2406.4	4850	24.94011976	
495	98.833	0	25.35928144	0	-2411.4	4860	25.35928144	
496	99.001	0	25.56886228	0	-2416.4	4870	25.56886228	
497	99.201	0	25.77844311	0	-2421.4	4880	25.77844311	
498	99.401	0	25.98802395	0	-2426.4	4890	25.98802395	
499	99.601	-0.00015	26.40718563	0	-2431.4	4900	26.40718563	
500	99.801	0	26.40718563	0	-2436.4	4910	26.40718563	
1 0
1 0 524031
-1
-1
-1
-1
-1
-1
-1
0
1 0.2 100 1 0 -1 0 1 0 0 0 0 1
1
Standard
8 0 -75 75 3 0 -0.00153 0.02883 -1 5 0 0 0 -1 -1 -1 -1 -1 1 0 1 0 1 3 3 3 0 1 0
0
8447552 
0
