CL4
180 0.2
Index
n

0 501 100 0 0 0 0 1 0 0 0 0 0 442 1 1
Zeit
t
s
0 100 50 0 1 0 0 1 0 0 0 0 0 0 1 1
Frequenz
f
Hz
0 2.5 1 0 3 0 0 1 500 0 0 0 0 0 1 1
6 0
0 1 0 1
1 0 0 1 1 0 5 0 0 0 0 0 0 0 0 2500 0 0 0 1 1139 116 297 140 0.5 0 0 1 0
Spannung
U_A1
V
-0.3 0.3 0.1 0 4 0 0 0 0 1 1 0 0 0 1 1
524031 -2.668120157 334.0718563 1
1 1 0 1 1 1 0 0 0 0 0 0 0 0 0 2500 0 0 0 1 989 208 297 140 0.5 0 0 1 2
Weg
s_B1
cm
0 150 50 0 1 0 0 0 0 1 1 0 0 51.34730539 1 1
10 1 -1 0
20 0 0 0 1 0 0 0 0 0 10 0 1 0 0 2500 0 0 0 0 50 50 297 140 0.5 0 0 1 0
neue Größe
f_1

0 100 50 0 1 0 0 1 0 0 0 0 0 0 1 1
10 1 -1 n*(-5)+63.6
20 1 0 0 1 0 0 0 0 0 10 0 1 0 0 2500 0 0 0 0 371 309 297 140 0.5 0 0 1 0
d_kalib
d_kalib

0 100 50 0 1 0 0 1 0 0 0 0 0 -2146.4 1 1
10 1 -1 -80+(n-1)*10
20 2 0 0 1 0 0 0 0 0 1 0 1 0 0 2500 0 0 0 0 454 573 297 140 0.5 0 0 1 0
gamma
gamma
Grad
-80 80 50 0 4 0 0 1 0 0 0 0 0 4330 1 1
10 1 -1 sB1
20 3 0 0 1 0 0 0 0 0 10 0 1 0 0 2500 0 0 0 1 415 132 297 140 0.5 0 0 1 0
alpha_tunnel
alpha
°
-75 75 50 0 1 0 0 1 0 0 0 0 0 51.34730539 1 1
8 442
1	0	0.00165	-78.17365269	0	58.6	-80	-78.17365269	
2	0.2	0.00165	-78.17365269	0	53.6	-70	-78.17365269	
3	0.401	0.0018	-78.17365269	0	48.6	-60	-78.17365269	
4	0.601	0.00165	-78.17365269	0	43.6	-50	-78.17365269	
5	0.801	0.00165	-78.17365269	0	38.6	-40	-78.17365269	
6	1.005	0.00165	-78.17365269	0	33.6	-30	-78.17365269	
7	1.201	0.00165	-78.17365269	0	28.6	-20	-78.17365269	
8	1.405	0.00165	-78.17365269	0	23.6	-10	-78.17365269	
9	1.613	0.00165	-78.17365269	0	18.6	0	-78.17365269	
10	1.821	0.00165	-78.17365269	0	13.6	10	-78.17365269	
11	2.013	0.00165	-78.17365269	0	8.6	20	-78.17365269	
12	2.221	0.0015	-78.17365269	0	3.6	30	-78.17365269	
13	2.429	0.0015	-78.17365269	0	-1.4	40	-78.17365269	
14	2.621	0.0015	-78.17365269	0	-6.4	50	-78.17365269	
15	2.829	0.0015	-78.17365269	0	-11.4	60	-78.17365269	
16	3.001	0.0018	-78.17365269	0	-16.4	70	-78.17365269	
17	3.201	0.0018	-78.17365269	0	-21.4	80	-78.17365269	
18	3.401	0.00195	-77.54491018	0	-26.4	90	-77.54491018	
19	3.601	0.0021	-77.1257485	0	-31.4	100	-77.1257485	
20	3.801	0.0024	-76.91616766	0	-36.4	110	-76.91616766	
21	4.001	0.0027	-76.70658683	0	-41.4	120	-76.70658683	
22	4.201	0.003	-76.28742515	0	-46.4	130	-76.28742515	
23	4.401	0.00345	-76.07784431	0	-51.4	140	-76.07784431	
24	4.601	0.00375	-75.65868263	0	-56.4	150	-75.65868263	
25	4.801	0.00435	-75.4491018	0	-61.4	160	-75.4491018	
26	5.001	0.00495	-75.23952096	0	-66.4	170	-75.23952096	
27	5.201	0.0054	-74.82035928	0	-71.4	180	-74.82035928	
28	5.404	0.006	-74.61077844	0	-76.4	190	-74.61077844	
29	5.601	0.0066	-74.4011976	0	-81.4	200	-74.4011976	
30	5.804	0.00735	-73.98203593	0	-86.4	210	-73.98203593	
31	6.012	0.00825	-73.77245509	0	-91.4	220	-73.77245509	
32	6.204	0.00885	-73.35329341	0	-96.4	230	-73.35329341	
33	6.412	0.0096	-73.14371257	0	-101.4	240	-73.14371257	
34	6.62	0.01035	-72.93413174	0	-106.4	250	-72.93413174	
35	6.828	0.01095	-72.7245509	0	-111.4	260	-72.7245509	
36	7.02	0.01185	-72.30538922	0	-116.4	270	-72.30538922	
37	7.228	0.01245	-72.09580838	0	-121.4	280	-72.09580838	
38	7.401	0.01245	-71.88622754	0	-126.4	290	-71.88622754	
39	7.601	0.0132	-71.88622754	0	-131.4	300	-71.88622754	
40	7.801	0.01365	-71.46706587	0	-136.4	310	-71.46706587	
41	8.001	0.01425	-71.46706587	0	-141.4	320	-71.46706587	
42	8.201	0.015	-71.25748503	0	-146.4	330	-71.25748503	
43	8.401	0.01545	-70.83832335	0	-151.4	340	-70.83832335	
44	8.601	0.0159	-70.62874251	0	-156.4	350	-70.62874251	
45	8.801	0.01665	-70.20958084	0	-161.4	360	-70.20958084	
46	9.001	0.0174	-70	0	-166.4	370	-70	
47	9.201	0.01815	-69.79041916	0	-171.4	380	-69.79041916	
48	9.401	0.01875	-69.58083832	0	-176.4	390	-69.58083832	
49	9.601	0.01935	-69.16167665	0	-181.4	400	-69.16167665	
50	9.803	0.02025	-68.95209581	0	-186.4	410	-68.95209581	
51	10.001	0.02115	-68.74251497	0	-191.4	420	-68.74251497	
52	10.203	0.02175	-68.53293413	0	-196.4	430	-68.53293413	
53	10.411	0.0222	-68.11377246	0	-201.4	440	-68.11377246	
54	10.619	0.02355	-67.90419162	0	-206.4	450	-67.90419162	
55	10.811	0.02445	-67.69461078	0	-211.4	460	-67.69461078	
56	11.019	0.0252	-67.48502994	0	-216.4	470	-67.48502994	
57	11.226	0.0258	-67.06586826	0	-221.4	480	-67.06586826	
58	11.419	0.0267	-66.85628743	0	-226.4	490	-66.85628743	
59	11.626	0.0276	-66.64670659	0	-231.4	500	-66.64670659	
60	11.834	0.0282	-66.43712575	0	-236.4	510	-66.43712575	
61	12.001	0.0285	-66.01796407	0	-241.4	520	-66.01796407	
62	12.201	0.02835	-65.80838323	0	-246.4	530	-65.80838323	
63	12.401	0.0282	-65.5988024	0	-251.4	540	-65.5988024	
64	12.601	0.02805	-65.38922156	0	-256.4	550	-65.38922156	
65	12.801	0.0279	-64.97005988	0	-261.4	560	-64.97005988	
66	13.001	0.02715	-64.76047904	0	-266.4	570	-64.76047904	
67	13.201	0.02625	-64.34131737	0	-271.4	580	-64.34131737	
68	13.401	0.0258	-64.13173653	0	-276.4	590	-64.13173653	
69	13.601	0.02475	-63.92215569	0	-281.4	600	-63.92215569	
70	13.801	0.024	-63.71257485	0	-286.4	610	-63.71257485	
71	14.001	0.02325	-63.29341317	0	-291.4	620	-63.29341317	
72	14.202	0.02235	-63.08383234	0	-296.4	630	-63.08383234	
73	14.41	0.0216	-62.66467066	0	-301.4	640	-62.66467066	
74	14.602	0.02085	-62.45508982	0	-306.4	650	-62.45508982	
75	14.81	0.0201	-62.24550898	0	-311.4	660	-62.24550898	
76	15.018	0.01965	-61.82634731	0	-316.4	670	-61.82634731	
77	15.21	0.0189	-61.61676647	0	-321.4	680	-61.61676647	
78	15.417	0.018	-61.40718563	0	-326.4	690	-61.40718563	
79	15.625	0.01725	-60.98802395	0	-331.4	700	-60.98802395	
80	15.817	0.01635	-60.77844311	0	-336.4	710	-60.77844311	
81	16.025	0.0156	-60.35928144	0	-341.4	720	-60.35928144	
82	16.233	0.01485	-60.1497006	0	-346.4	730	-60.1497006	
83	16.401	0.0138	-59.94011976	0	-351.4	740	-59.94011976	
84	16.601	0.0129	-59.52095808	0	-356.4	750	-59.52095808	
85	16.801	0.012	-59.31137725	0	-361.4	760	-59.31137725	
86	17.001	0.01125	-59.10179641	0	-366.4	770	-59.10179641	
87	17.201	0.01065	-58.68263473	0	-371.4	780	-58.68263473	
88	17.401	0.00975	-58.47305389	0	-376.4	790	-58.47305389	
89	17.601	0.00915	-58.26347305	0	-381.4	800	-58.26347305	
90	17.801	0.00855	-57.84431138	0	-386.4	810	-57.84431138	
91	18.001	0.0081	-57.63473054	0	-391.4	820	-57.63473054	
92	18.201	0.0075	-57.4251497	0	-396.4	830	-57.4251497	
93	18.401	0.00705	-57.00598802	0	-401.4	840	-57.00598802	
94	18.601	0.00645	-56.79640719	0	-406.4	850	-56.79640719	
95	18.801	0.0057	-56.37724551	0	-411.4	860	-56.37724551	
96	19.001	0.0051	-56.16766467	0	-416.4	870	-56.16766467	
97	19.208	0.0045	-55.95808383	0	-421.4	880	-55.95808383	
98	19.416	0.0042	-55.74850299	0	-426.4	890	-55.74850299	
99	19.608	0.00375	-55.53892216	0	-431.4	900	-55.53892216	
100	19.816	0.00345	-55.11976048	0	-436.4	910	-55.11976048	
101	20.024	0.00285	-54.91017964	0	-441.4	920	-54.91017964	
102	20.216	0.00255	-54.7005988	0	-446.4	930	-54.7005988	
103	20.424	0.00225	-54.49101796	0	-451.4	940	-54.49101796	
104	20.632	0.0021	-54.28143713	0	-456.4	950	-54.28143713	
105	20.824	0.00195	-54.07185629	0	-461.4	960	-54.07185629	
106	21.001	0.00165	-53.86227545	0	-466.4	970	-53.86227545	
107	21.201	0.0015	-53.44311377	0	-471.4	980	-53.44311377	
108	21.401	0.00135	-53.23353293	0	-476.4	990	-53.23353293	
109	21.601	0.0012	-53.0239521	0	-481.4	1000	-53.0239521	
110	21.801	0.0012	-52.81437126	0	-486.4	1010	-52.81437126	
111	22.001	0.0012	-52.60479042	0	-491.4	1020	-52.60479042	
112	22.201	0.00105	-52.39520958	0	-496.4	1030	-52.39520958	
113	22.401	0.0009	-51.9760479	0	-501.4	1040	-51.9760479	
114	22.601	0.00075	-51.76646707	0	-506.4	1050	-51.76646707	
115	22.801	0.0006	-51.55688623	0	-511.4	1060	-51.55688623	
116	23.001	0.0006	-51.34730539	0	-516.4	1070	-51.34730539	
117	23.201	0.00045	-51.13772455	0	-521.4	1080	-51.13772455	
118	23.401	0.00045	-50.71856287	0	-526.4	1090	-50.71856287	
119	23.607	0.0003	-50.50898204	0	-531.4	1100	-50.50898204	
120	23.815	0.0003	-50.2994012	0	-536.4	1110	-50.2994012	
121	24.007	0.00015	-50.08982036	0	-541.4	1120	-50.08982036	
122	24.215	0.00015	-49.67065868	0	-546.4	1130	-49.67065868	
123	24.423	0	-49.46107784	0	-551.4	1140	-49.46107784	
124	24.615	0	-49.25149701	0	-556.4	1150	-49.25149701	
125	24.823	0	-48.83233533	0	-561.4	1160	-48.83233533	
126	25.031	0	-48.41317365	0	-566.4	1170	-48.41317365	
127	25.223	0	-48.41317365	0	-571.4	1180	-48.41317365	
128	25.401	0	-47.99401198	0	-576.4	1190	-47.99401198	
129	25.601	0	-47.78443114	0	-581.4	1200	-47.78443114	
130	25.801	0	-47.5748503	0	-586.4	1210	-47.5748503	
131	26.001	0	-47.36526946	0	-591.4	1220	-47.36526946	
132	26.201	0	-46.94610778	0	-596.4	1230	-46.94610778	
133	26.401	0	-46.73652695	0	-601.4	1240	-46.73652695	
134	26.601	0	-46.52694611	0	-606.4	1250	-46.52694611	
135	26.801	0	-46.10778443	0	-611.4	1260	-46.10778443	
136	27.001	0	-45.89820359	0	-616.4	1270	-45.89820359	
137	27.201	0	-45.68862275	0	-621.4	1280	-45.68862275	
138	27.401	0	-45.47904192	0	-626.4	1290	-45.47904192	
139	27.606	0	-45.05988024	0	-631.4	1300	-45.05988024	
140	27.801	0	-44.8502994	0	-636.4	1310	-44.8502994	
141	28.006	0	-44.43113772	0	-641.4	1320	-44.43113772	
142	28.214	0	-44.22155689	0	-646.4	1330	-44.22155689	
143	28.406	0	-44.01197605	0	-651.4	1340	-44.01197605	
144	28.614	0	-43.80239521	0	-656.4	1350	-43.80239521	
145	28.822	0	-43.38323353	0	-661.4	1360	-43.38323353	
146	29.014	0	-43.17365269	0	-666.4	1370	-43.17365269	
147	29.222	0	-42.96407186	0	-671.4	1380	-42.96407186	
148	29.43	0	-42.54491018	0	-676.4	1390	-42.54491018	
149	29.622	0	-42.33532934	0	-681.4	1400	-42.33532934	
150	29.801	0	-42.1257485	0	-686.4	1410	-42.1257485	
151	30.001	0	-42.1257485	0	-691.4	1420	-42.1257485	
152	30.201	0	-41.49700599	0	-696.4	1430	-41.49700599	
153	30.401	0	-41.49700599	0	-701.4	1440	-41.49700599	
154	30.601	0	-41.28742515	0	-706.4	1450	-41.28742515	
155	30.801	0	-40.86826347	0	-711.4	1460	-40.86826347	
156	31.001	0	-40.86826347	0	-716.4	1470	-40.86826347	
157	31.201	0	-40.65868263	0	-721.4	1480	-40.65868263	
158	31.401	0	-40.4491018	0	-726.4	1490	-40.4491018	
159	31.601	0	-40.23952096	0	-731.4	1500	-40.23952096	
160	31.801	0	-39.82035928	0	-736.4	1510	-39.82035928	
161	32.001	0	-39.61077844	0	-741.4	1520	-39.61077844	
162	32.201	0.00015	-39.4011976	0	-746.4	1530	-39.4011976	
163	32.401	0.00015	-39.19161677	0	-751.4	1540	-39.19161677	
164	32.601	0.0003	-38.98203593	0	-756.4	1550	-38.98203593	
165	32.801	0.0003	-38.77245509	0	-761.4	1560	-38.77245509	
166	33.001	0.00045	-38.35329341	0	-766.4	1570	-38.35329341	
167	33.205	0.0003	-38.35329341	0	-771.4	1580	-38.35329341	
168	33.401	0.00045	-38.14371257	0	-776.4	1590	-38.14371257	
169	33.605	0.0006	-37.93413174	0	-781.4	1600	-37.93413174	
170	33.813	0.0006	-37.7245509	0	-786.4	1610	-37.7245509	
171	34.005	0.0006	-37.30538922	0	-791.4	1620	-37.30538922	
172	34.213	0.0006	-37.09580838	0	-796.4	1630	-37.09580838	
173	34.421	0.00075	-36.88622754	0	-801.4	1640	-36.88622754	
174	34.613	0.00075	-36.67664671	0	-806.4	1650	-36.67664671	
175	34.821	0.0006	-36.46706587	0	-811.4	1660	-36.46706587	
176	35.028	0.0006	-36.25748503	0	-816.4	1670	-36.25748503	
177	35.22	0.0006	-35.83832335	0	-821.4	1680	-35.83832335	
178	35.401	0.0006	-35.62874251	0	-826.4	1690	-35.62874251	
179	35.601	0.0006	-35.41916168	0	-831.4	1700	-35.41916168	
180	35.801	0.0006	-35.20958084	0	-836.4	1710	-35.20958084	
181	36.001	0.0006	-34.79041916	0	-841.4	1720	-34.79041916	
182	36.201	0.0006	-34.58083832	0	-846.4	1730	-34.58083832	
183	36.401	0.0006	-34.37125749	0	-851.4	1740	-34.37125749	
184	36.601	0.00045	-34.16167665	0	-856.4	1750	-34.16167665	
185	36.801	0.00045	-33.95209581	0	-861.4	1760	-33.95209581	
186	37.001	0.00045	-33.53293413	0	-866.4	1770	-33.53293413	
187	37.201	0.0003	-33.32335329	0	-871.4	1780	-33.32335329	
188	37.401	0.0003	-33.11377246	0	-876.4	1790	-33.11377246	
189	37.604	0.0003	-32.69461078	0	-881.4	1800	-32.69461078	
190	37.801	0.0003	-32.48502994	0	-886.4	1810	-32.48502994	
191	38.004	0.0003	-32.2754491	0	-891.4	1820	-32.2754491	
192	38.212	0.00015	-32.06586826	0	-896.4	1830	-32.06586826	
193	38.404	0.00015	-31.64670659	0	-901.4	1840	-31.64670659	
194	38.612	0.0003	-31.43712575	0	-906.4	1850	-31.43712575	
195	38.82	0.00015	-31.22754491	0	-911.4	1860	-31.22754491	
196	39.012	0.00015	-31.01796407	0	-916.4	1870	-31.01796407	
197	39.219	0.00015	-30.80838323	0	-921.4	1880	-30.80838323	
198	39.427	0.00015	-30.38922156	0	-926.4	1890	-30.38922156	
199	39.619	0.00015	-30.17964072	0	-931.4	1900	-30.17964072	
200	39.801	0	-29.97005988	0	-936.4	1910	-29.97005988	
201	40.001	0	-29.76047904	0	-941.4	1920	-29.76047904	
202	40.201	0	-29.5508982	0	-946.4	1930	-29.5508982	
203	40.401	0	-29.13173653	0	-951.4	1940	-29.13173653	
204	40.601	0	-28.92215569	0	-956.4	1950	-28.92215569	
205	40.801	0	-28.50299401	0	-961.4	1960	-28.50299401	
206	41.001	0	-28.29341317	0	-966.4	1970	-28.29341317	
207	41.201	0	-28.08383234	0	-971.4	1980	-28.08383234	
208	41.401	0	-27.8742515	0	-976.4	1990	-27.8742515	
209	41.601	0	-27.45508982	0	-981.4	2000	-27.45508982	
210	41.801	0	-27.24550898	0	-986.4	2010	-27.24550898	
211	42.003	0	-27.03592814	0	-991.4	2020	-27.03592814	
212	42.201	0	-26.82634731	0	-996.4	2030	-26.82634731	
213	42.403	0	-26.40718563	0	-1001.4	2040	-26.40718563	
214	42.611	0	-26.19760479	0	-1006.4	2050	-26.19760479	
215	42.803	0	-25.98802395	0	-1011.4	2060	-25.98802395	
216	43.01	-0.00015	-25.77844311	0	-1016.4	2070	-25.77844311	
217	43.218	0	-25.56886228	0	-1021.4	2080	-25.56886228	
218	43.41	0	-25.1497006	0	-1026.4	2090	-25.1497006	
219	43.618	0	-24.94011976	0	-1031.4	2100	-24.94011976	
220	43.826	-0.00015	-24.73053892	0	-1036.4	2110	-24.73053892	
221	44.018	0	-24.52095808	0	-1041.4	2120	-24.52095808	
222	44.226	0	-24.31137725	0	-1046.4	2130	-24.31137725	
223	44.401	0	-24.10179641	0	-1051.4	2140	-24.10179641	
224	44.601	0	-23.89221557	0	-1056.4	2150	-23.89221557	
225	44.801	0	-23.47305389	0	-1061.4	2160	-23.47305389	
226	45.001	0	-23.26347305	0	-1066.4	2170	-23.26347305	
227	45.201	0	-23.05389222	0	-1071.4	2180	-23.05389222	
228	45.401	0	-22.84431138	0	-1076.4	2190	-22.84431138	
229	45.601	0	-22.84431138	0	-1081.4	2200	-22.84431138	
230	45.801	0	-22.63473054	0	-1086.4	2210	-22.63473054	
231	46.001	0	-22.21556886	0	-1091.4	2220	-22.21556886	
232	46.201	0	-22.00598802	0	-1096.4	2230	-22.00598802	
233	46.402	0	-21.79640719	0	-1101.4	2240	-21.79640719	
234	46.601	0	-21.58682635	0	-1106.4	2250	-21.58682635	
235	46.802	-0.00015	-21.37724551	0	-1111.4	2260	-21.37724551	
236	47.009	0	-21.16766467	0	-1116.4	2270	-21.16766467	
237	47.201	-0.00015	-20.95808383	0	-1121.4	2280	-20.95808383	
238	47.409	0	-20.74850299	0	-1126.4	2290	-20.74850299	
239	47.617	-0.00015	-20.53892216	0	-1131.4	2300	-20.53892216	
240	47.809	0	-20.32934132	0	-1136.4	2310	-20.32934132	
241	48.017	-0.00015	-20.11976048	0	-1141.4	2320	-20.11976048	
242	48.225	0	-19.91017964	0	-1146.4	2330	-19.91017964	
243	48.417	-0.00015	-19.49101796	0	-1151.4	2340	-19.49101796	
244	48.625	0	-19.28143713	0	-1156.4	2350	-19.28143713	
245	48.801	0	-18.86227545	0	-1161.4	2360	-18.86227545	
246	49.001	0	-18.65269461	0	-1166.4	2370	-18.65269461	
247	49.201	0	-18.44311377	0	-1171.4	2380	-18.44311377	
248	49.401	0	-18.23353293	0	-1176.4	2390	-18.23353293	
249	49.601	0	-18.0239521	0	-1181.4	2400	-18.0239521	
250	49.801	0	-17.60479042	0	-1186.4	2410	-17.60479042	
251	50.001	0	-17.39520958	0	-1191.4	2420	-17.39520958	
252	50.201	0	-17.18562874	0	-1196.4	2430	-17.18562874	
253	50.401	0	-16.9760479	0	-1201.4	2440	-16.9760479	
254	50.601	0	-16.55688623	0	-1206.4	2450	-16.55688623	
255	50.801	0	-16.34730539	0	-1211.4	2460	-16.34730539	
256	51.001	0	-16.13772455	0	-1216.4	2470	-16.13772455	
257	51.201	0	-15.71856287	0	-1221.4	2480	-15.71856287	
258	51.408	0	-15.71856287	0	-1226.4	2490	-15.71856287	
259	51.601	0	-15.2994012	0	-1231.4	2500	-15.2994012	
260	51.808	0	-15.08982036	0	-1236.4	2510	-15.08982036	
261	52.016	0	-14.88023952	0	-1241.4	2520	-14.88023952	
262	52.224	0	-14.46107784	0	-1246.4	2530	-14.46107784	
263	52.416	0	-14.25149701	0	-1251.4	2540	-14.25149701	
264	52.624	0	-14.04191617	0	-1256.4	2550	-14.04191617	
265	52.816	0	-13.83233533	0	-1261.4	2560	-13.83233533	
266	53.024	0	-13.41317365	0	-1266.4	2570	-13.41317365	
267	53.201	0	-13.20359281	0	-1271.4	2580	-13.20359281	
268	53.401	0	-13.20359281	0	-1276.4	2590	-13.20359281	
269	53.601	0	-12.99401198	0	-1281.4	2600	-12.99401198	
270	53.801	0	-12.78443114	0	-1286.4	2610	-12.78443114	
271	54.001	0.00015	-12.36526946	0	-1291.4	2620	-12.36526946	
272	54.201	0.0003	-12.15568862	0	-1296.4	2630	-12.15568862	
273	54.401	0.00045	-11.94610778	0	-1301.4	2640	-11.94610778	
274	54.601	0.0009	-11.52694611	0	-1306.4	2650	-11.52694611	
275	54.801	0.00105	-11.31736527	0	-1311.4	2660	-11.31736527	
276	55.001	0.0015	-11.10778443	0	-1316.4	2670	-11.10778443	
277	55.201	0.00165	-10.89820359	0	-1321.4	2680	-10.89820359	
278	55.401	0.00195	-10.47904192	0	-1326.4	2690	-10.47904192	
279	55.601	0.0021	-10.26946108	0	-1331.4	2700	-10.26946108	
280	55.801	0.0024	-10.05988024	0	-1336.4	2710	-10.05988024	
281	56.001	0.00255	-9.850299401	0	-1341.4	2720	-9.850299401	
282	56.201	0.0027	-9.640718563	0	-1346.4	2730	-9.640718563	
283	56.401	0.00285	-9.221556886	0	-1351.4	2740	-9.221556886	
284	56.607	0.0033	-9.011976048	0	-1356.4	2750	-9.011976048	
285	56.801	0.00345	-8.80239521	0	-1361.4	2760	-8.80239521	
286	57.007	0.0036	-8.592814371	0	-1366.4	2770	-8.592814371	
287	57.215	0.00345	-8.383233533	0	-1371.4	2780	-8.383233533	
288	57.407	0.00375	-8.173652695	0	-1376.4	2790	-8.173652695	
289	57.615	0.0036	-7.754491018	0	-1381.4	2800	-7.754491018	
290	57.823	0.00345	-7.54491018	0	-1386.4	2810	-7.54491018	
291	58.015	0.0036	-7.335329341	0	-1391.4	2820	-7.335329341	
292	58.223	0.00345	-7.125748503	0	-1396.4	2830	-7.125748503	
293	58.431	0.00315	-6.916167665	0	-1401.4	2840	-6.916167665	
294	58.623	0.00315	-6.706586826	0	-1406.4	2850	-6.706586826	
295	58.801	0.003	-6.497005988	0	-1411.4	2860	-6.497005988	
296	59.001	0.00285	-6.28742515	0	-1416.4	2870	-6.28742515	
297	59.201	0.00255	-6.077844311	0	-1421.4	2880	-6.077844311	
298	59.401	0.00225	-5.868263473	0	-1426.4	2890	-5.868263473	
299	59.601	0.0021	-5.658682635	0	-1431.4	2900	-5.658682635	
300	59.801	0.00195	-5.449101796	0	-1436.4	2910	-5.449101796	
301	60.001	0.00165	-5.239520958	0	-1441.4	2920	-5.239520958	
302	60.201	0.00135	-4.820359281	0	-1446.4	2930	-4.820359281	
303	60.401	0.00105	-4.610778443	0	-1451.4	2940	-4.610778443	
304	60.601	0.0009	-4.401197605	0	-1456.4	2950	-4.401197605	
305	60.801	0.0006	-4.191616766	0	-1461.4	2960	-4.191616766	
306	61.001	0.0003	-3.982035928	0	-1466.4	2970	-3.982035928	
307	61.201	0.00015	-3.562874251	0	-1471.4	2980	-3.562874251	
308	61.401	0	-3.353293413	0	-1476.4	2990	-3.353293413	
309	61.601	0	-3.143712575	0	-1481.4	3000	-3.143712575	
310	61.801	0	-2.724550898	0	-1486.4	3010	-2.724550898	
311	62.001	0	-2.51497006	0	-1491.4	3020	-2.51497006	
312	62.206	0.00015	-2.305389222	0	-1496.4	3030	-2.305389222	
313	62.401	0.00015	-2.095808383	0	-1501.4	3040	-2.095808383	
314	62.605	0.00045	-1.886227545	0	-1506.4	3050	-1.886227545	
315	62.813	0.00075	-1.676646707	0	-1511.4	3060	-1.676646707	
316	63.005	0.00105	-1.25748503	0	-1516.4	3070	-1.25748503	
317	63.213	0.0012	-1.047904192	0	-1521.4	3080	-1.047904192	
318	63.421	0.00165	-0.8383233533	0	-1526.4	3090	-0.8383233533	
319	63.613	0.00195	-0.4191616766	0	-1531.4	3100	-0.4191616766	
320	63.821	0.00225	-0.2095808383	0	-1536.4	3110	-0.2095808383	
321	64.029	0.0024	-2.051137038E-14	0	-1541.4	3120	-2.051137038E-14	
322	64.221	0.00255	0.2095808383	0	-1546.4	3130	0.2095808383	
323	64.401	0.00285	0.628742515	0	-1551.4	3140	0.628742515	
324	64.601	0.003	0.8383233533	0	-1556.4	3150	0.8383233533	
325	64.801	0.00315	1.047904192	0	-1561.4	3160	1.047904192	
326	65.001	0.003	1.25748503	0	-1566.4	3170	1.25748503	
327	65.201	0.00285	1.676646707	0	-1571.4	3180	1.676646707	
328	65.401	0.00285	1.886227545	0	-1576.4	3190	1.886227545	
329	65.601	0.00255	2.095808383	0	-1581.4	3200	2.095808383	
330	65.801	0.0024	2.305389222	0	-1586.4	3210	2.305389222	
331	66.001	0.00225	2.51497006	0	-1591.4	3220	2.51497006	
332	66.201	0.00195	2.934131737	0	-1596.4	3230	2.934131737	
333	66.401	0.00165	3.143712575	0	-1601.4	3240	3.143712575	
334	66.605	0.0012	3.353293413	0	-1606.4	3250	3.353293413	
335	66.801	0.0012	3.562874251	0	-1611.4	3260	3.562874251	
336	67.004	0.0012	3.982035928	0	-1616.4	3270	3.982035928	
337	67.212	0.00105	4.191616766	0	-1621.4	3280	4.191616766	
338	67.404	0.0006	4.401197605	0	-1626.4	3290	4.401197605	
339	67.612	0.00045	4.610778443	0	-1631.4	3300	4.610778443	
340	67.82	0.0003	4.820359281	0	-1636.4	3310	4.820359281	
341	68.012	0.0003	5.02994012	0	-1641.4	3320	5.02994012	
342	68.22	0.0003	5.449101796	0	-1646.4	3330	5.449101796	
343	68.428	0.0003	5.658682635	0	-1651.4	3340	5.658682635	
344	68.62	0.00045	5.868263473	0	-1656.4	3350	5.868263473	
345	68.828	0.0006	6.077844311	0	-1661.4	3360	6.077844311	
346	69.001	0.00075	6.28742515	0	-1666.4	3370	6.28742515	
347	69.201	0.00075	6.497005988	0	-1671.4	3380	6.497005988	
348	69.401	0.00075	6.916167665	0	-1676.4	3390	6.916167665	
349	69.601	0.0009	7.125748503	0	-1681.4	3400	7.125748503	
350	69.801	0.0009	7.335329341	0	-1686.4	3410	7.335329341	
351	70.001	0.0009	7.54491018	0	-1691.4	3420	7.54491018	
352	70.201	0.00105	7.754491018	0	-1696.4	3430	7.754491018	
353	70.401	0.0012	7.964071856	0	-1701.4	3440	7.964071856	
354	70.601	0.00105	8.173652695	0	-1706.4	3450	8.173652695	
355	70.801	0.00105	8.592814371	0	-1711.4	3460	8.592814371	
356	71.003	0.00105	8.80239521	0	-1716.4	3470	8.80239521	
357	71.201	0.0009	9.011976048	0	-1721.4	3480	9.011976048	
358	71.403	0.0009	9.221556886	0	-1726.4	3490	9.221556886	
359	71.611	0.00075	9.431137725	0	-1731.4	3500	9.431137725	
360	71.803	0.00075	9.850299401	0	-1736.4	3510	9.850299401	
361	72.011	0.00045	10.05988024	0	-1741.4	3520	10.05988024	
362	72.219	0.0003	10.26946108	0	-1746.4	3530	10.26946108	
363	72.411	0.00015	10.47904192	0	-1751.4	3540	10.47904192	
364	72.619	0	10.68862275	0	-1756.4	3550	10.68862275	
365	72.827	0	10.89820359	0	-1761.4	3560	10.89820359	
366	73.019	0	11.10778443	0	-1766.4	3570	11.10778443	
367	73.227	0	11.52694611	0	-1771.4	3580	11.52694611	
368	73.401	0	11.52694611	0	-1776.4	3590	11.52694611	
369	73.601	0	11.94610778	0	-1781.4	3600	11.94610778	
370	73.801	-0.00015	12.15568862	0	-1786.4	3610	12.15568862	
371	74.001	0	12.5748503	0	-1791.4	3620	12.5748503	
372	74.201	0	12.78443114	0	-1796.4	3630	12.78443114	
373	74.401	0	12.99401198	0	-1801.4	3640	12.99401198	
374	74.601	0	13.41317365	0	-1806.4	3650	13.41317365	
375	74.801	0	13.62275449	0	-1811.4	3660	13.62275449	
376	75.001	0	14.04191617	0	-1816.4	3670	14.04191617	
377	75.201	0	14.25149701	0	-1821.4	3680	14.25149701	
378	75.402	0	14.46107784	0	-1826.4	3690	14.46107784	
379	75.601	0	14.88023952	0	-1831.4	3700	14.88023952	
380	75.802	0	15.08982036	0	-1836.4	3710	15.08982036	
381	76.01	0	15.50898204	0	-1841.4	3720	15.50898204	
382	76.202	0	15.71856287	0	-1846.4	3730	15.71856287	
383	76.41	0	15.92814371	0	-1851.4	3740	15.92814371	
384	76.618	0	16.34730539	0	-1856.4	3750	16.34730539	
385	76.81	0	16.55688623	0	-1861.4	3760	16.55688623	
386	77.018	0	16.9760479	0	-1866.4	3770	16.9760479	
387	77.226	0	17.18562874	0	-1871.4	3780	17.18562874	
388	77.418	0	17.39520958	0	-1876.4	3790	17.39520958	
389	77.626	0	17.60479042	0	-1881.4	3800	17.60479042	
390	77.801	0	17.60479042	0	-1886.4	3810	17.60479042	
391	78.001	0	18.0239521	0	-1891.4	3820	18.0239521	
392	78.201	0	18.23353293	0	-1896.4	3830	18.23353293	
393	78.401	0	18.44311377	0	-1901.4	3840	18.44311377	
394	78.601	0	18.86227545	0	-1906.4	3850	18.86227545	
395	78.801	0	19.07185629	0	-1911.4	3860	19.07185629	
396	79.001	0	19.28143713	0	-1916.4	3870	19.28143713	
397	79.201	0	19.7005988	0	-1921.4	3880	19.7005988	
398	79.401	0.00015	19.91017964	0	-1926.4	3890	19.91017964	
399	79.601	0.00015	20.11976048	0	-1931.4	3900	20.11976048	
400	79.801	0.00015	20.53892216	0	-1936.4	3910	20.53892216	
401	80.001	0.0003	20.74850299	0	-1941.4	3920	20.74850299	
402	80.201	0.0003	21.16766467	0	-1946.4	3930	21.16766467	
403	80.401	0.0003	21.37724551	0	-1951.4	3940	21.37724551	
404	80.601	0.0003	21.58682635	0	-1956.4	3950	21.58682635	
405	80.801	0.0003	21.79640719	0	-1961.4	3960	21.79640719	
406	81.001	0.0003	22.00598802	0	-1966.4	3970	22.00598802	
407	81.201	0.0003	22.4251497	0	-1971.4	3980	22.4251497	
408	81.401	0.00015	22.63473054	0	-1976.4	3990	22.63473054	
409	81.609	0	22.84431138	0	-1981.4	4000	22.84431138	
410	81.801	0	23.26347305	0	-1986.4	4010	23.26347305	
411	82.009	0	23.26347305	0	-1991.4	4020	23.26347305	
412	82.217	0	23.68263473	0	-1996.4	4030	23.68263473	
413	82.424	0	23.89221557	0	-2001.4	4040	23.89221557	
414	82.616	0	24.31137725	0	-2006.4	4050	24.31137725	
415	82.824	0	24.52095808	0	-2011.4	4060	24.52095808	
416	83.032	0	24.73053892	0	-2016.4	4070	24.73053892	
417	83.224	0	24.94011976	0	-2021.4	4080	24.94011976	
418	83.401	0	25.35928144	0	-2026.4	4090	25.35928144	
419	83.601	0	25.56886228	0	-2031.4	4100	25.56886228	
420	83.801	0	25.77844311	0	-2036.4	4110	25.77844311	
421	84.001	0	25.98802395	0	-2041.4	4120	25.98802395	
422	84.201	0	26.40718563	0	-2046.4	4130	26.40718563	
423	84.401	0	26.61676647	0	-2051.4	4140	26.61676647	
424	84.601	0.00015	26.82634731	0	-2056.4	4150	26.82634731	
425	84.801	0.00015	27.24550898	0	-2061.4	4160	27.24550898	
426	85.001	0.00015	27.45508982	0	-2066.4	4170	27.45508982	
427	85.201	0.00015	27.66467066	0	-2071.4	4180	27.66467066	
428	85.401	0	28.08383234	0	-2076.4	4190	28.08383234	
429	85.601	0	28.29341317	0	-2081.4	4200	28.29341317	
430	85.801	0	28.50299401	0	-2086.4	4210	28.50299401	
431	86.008	0	28.92215569	0	-2091.4	4220	28.92215569	
432	86.216	0	29.13173653	0	-2096.4	4230	29.13173653	
433	86.407	0	29.5508982	0	-2101.4	4240	29.5508982	
434	86.615	0	29.76047904	0	-2106.4	4250	29.76047904	
435	86.823	0	29.97005988	0	-2111.4	4260	29.97005988	
436	87.015	0	30.38922156	0	-2116.4	4270	30.38922156	
437	87.223	0	30.5988024	0	-2121.4	4280	30.5988024	
438	87.431	0	30.80838323	0	-2126.4	4290	30.80838323	
439	87.623	0	31.22754491	0	-2131.4	4300	31.22754491	
440	87.801	0	31.43712575	0	-2136.4	4310	31.43712575	
441	88.001	0	31.64670659	0	-2141.4	4320	31.64670659	
442	88.201	0	32.06586826	0	-2146.4	4330	32.06586826	
1 0
1 0 524031
-1
-1
-1
-1
-1
-1
-1
0
1 0.2 100 1 0 -1 0 1 0 0 0 0 1
1
Standard
8 0 -75 75 3 0 -0.001275 0.030075 -1 5 0 0 0 -1 -1 -1 -1 -1 1 0 1 0 1 3 3 3 0 1 0
0
8447552 
0
